,HRV RMSSD,HRV RMSSD Timestamp
0,4744.327905270385,0.05
1,,0.05
2,,0.06
3,,0.06
4,,0.07
5,,0.07
6,,0.07
7,,0.08
8,,0.08
9,,0.09
10,,0.09
11,,0.09
12,,0.1
13,,0.1
14,,0.11
15,,0.11
16,,0.11
17,,0.12
18,,0.12
19,,0.13
20,,0.13
21,,0.13
22,,0.14
23,,0.14
24,,0.15
25,,0.15
26,,0.15
27,,0.16
28,,0.16
29,,0.17
30,,0.17
31,,0.17
32,,0.18
33,,0.18
34,,0.19
35,,0.19
36,,0.19
37,,0.2
38,,0.2
39,,0.21
40,,0.21
41,,0.21
42,,0.22
43,,0.22
44,,0.23
45,,0.23
46,,0.23
47,,0.24
48,,0.24
49,,0.25
50,,0.25
51,,0.25
52,,0.26
53,,0.26
54,,0.27
55,,0.27
56,,0.27
57,,0.28
58,,0.28
59,,0.29
60,,0.29
61,,0.29
62,,0.3
63,,0.3
64,,0.31
65,,0.31
66,,0.31
67,,0.32
68,,0.32
69,,0.33
70,,0.33
71,,0.33
72,,0.34
73,,0.34
74,,0.35
75,,0.35
76,,0.35
77,,0.36
78,,0.36
79,,0.37
80,,0.37
81,,0.37
82,,0.38
83,,0.38
84,,0.39
85,,0.39
86,,0.39
87,,0.4
88,,0.4
89,,0.41
90,,0.41
91,,0.41
92,,0.42
93,,0.42
94,,0.43
95,,0.43
96,,0.43
97,,0.44
98,,0.44
99,,0.45
100,,0.45
101,,0.45
102,,0.46
103,,0.46
104,,0.47
105,,0.47
106,,0.47
107,,0.48
108,,0.48
109,,0.49
110,,0.49
111,,0.49
112,,0.5
113,,0.5
114,,0.51
115,,0.51
116,,0.51
117,,0.52
118,,0.52
119,,0.53
120,,0.53
121,,0.53
122,,0.54
123,,0.54
124,,0.55
125,,0.55
126,,0.55
127,,0.56
128,,0.56
129,,0.57
130,,0.57
131,,0.57
132,,0.58
133,,0.58
134,,0.59
135,,0.59
136,,0.59
137,,0.6
138,,0.6
139,,0.61
140,,0.61
141,,0.61
142,,0.62
143,,0.62
144,,0.63
145,,0.63
146,,0.63
147,,0.64
148,,0.64
149,,0.65
150,,0.65
151,,0.65
152,,0.66
153,,0.66
154,,0.67
155,,0.67
156,,0.67
157,,0.68
158,,0.68
159,,0.69
160,,0.69
161,,0.69
162,,0.7
163,,0.7
164,,0.71
165,,0.71
166,,0.71
167,,0.72
168,,0.72
169,,0.73
170,,0.73
171,,0.73
172,,0.74
173,,0.74
174,,0.75
175,,0.75
176,,0.75
177,,0.76
178,,0.76
179,,0.77
180,,0.77
181,,0.77
182,,0.78
183,,0.78
184,,0.79
185,,0.79
186,,0.79
187,,0.8
188,,0.8
189,,0.81
190,,0.81
191,,0.81
192,,0.82
193,,0.82
194,,0.83
195,,0.83
196,,0.83
197,,0.84
198,,0.84
199,,0.85
200,,0.85
201,,0.85
202,,0.86
203,,0.86
204,,0.87
205,,0.87
206,,0.87
207,,0.88
208,,0.88
209,,0.89
210,,0.89
211,,0.89
212,,0.9
213,,0.9
214,,0.91
215,,0.91
216,,0.91
217,,0.92
218,,0.92
219,,0.93
220,,0.93
221,,0.93
222,,0.94
223,,0.94
224,,0.95
225,,0.95
226,,0.95
227,,0.96
228,,0.96
229,,0.97
230,,0.97
231,,0.97
232,,0.98
233,,0.98
234,,0.99
235,,0.99
236,,0.99
237,,1.0
238,,1.0
239,,1.01
240,,1.01
241,,1.01
242,,1.02
243,,1.02
244,,1.03
245,,1.03
246,,1.03
247,,1.04
248,,1.04
249,,1.05
250,,1.05
251,,1.05
252,,1.06
253,,1.06
254,,1.07
255,,1.07
256,,1.07
257,,1.08
258,,1.08
259,,1.09
260,,1.09
261,,1.09
262,,1.1
263,,1.1
264,,1.11
265,,1.11
266,,1.11
267,,1.12
268,,1.12
269,,1.13
270,,1.13
271,,1.13
272,,1.14
273,,1.14
274,,1.15
275,,1.15
276,,1.15
277,,1.16
278,,1.16
279,,1.17
280,,1.17
281,,1.17
282,,1.18
283,,1.18
284,,1.19
285,,1.19
286,,1.19
287,,1.2
288,,1.2
289,,1.21
290,,1.21
291,,1.21
292,,1.22
293,,1.22
294,,1.23
295,,1.23
296,,1.23
297,,1.24
298,,1.24
299,,1.25
300,,1.25
301,,1.25
302,,1.26
303,,1.26
304,,1.27
305,,1.27
306,,1.27
307,,1.28
308,,1.28
309,,1.29
310,,1.29
311,,1.29
312,,1.3
313,,1.3
314,,1.31
315,,1.31
316,,1.31
317,,1.32
318,,1.32
319,,1.33
320,,1.33
321,,1.33
322,,1.34
323,,1.34
324,,1.35
325,,1.35
326,,1.35
327,,1.36
328,,1.36
329,,1.37
330,,1.37
331,,1.37
332,,1.38
333,,1.38
334,,1.39
335,,1.39
336,,1.39
337,,1.4
338,,1.4
339,,1.41
340,,1.41
341,,1.41
342,,1.42
343,,1.42
344,,1.43
345,,1.43
346,,1.43
347,,1.44
348,,1.44
349,,1.45
350,,1.45
351,,1.45
352,,1.46
353,,1.46
354,,1.47
355,,1.47
356,,1.47
357,,1.48
358,,1.48
359,,1.49
360,,1.49
361,,1.49
362,,1.5
363,,1.5
364,,1.51
365,,1.51
366,,1.51
367,,1.52
368,,1.52
369,,1.53
370,,1.53
371,,1.53
372,,1.54
373,,1.54
374,,1.55
375,,1.55
376,,1.55
377,,1.56
378,,1.56
379,,1.57
380,,1.57
381,,1.57
382,,1.58
383,,1.58
384,,1.59
385,,1.59
386,,1.59
387,,1.6
388,,1.6
389,,1.61
390,,1.61
391,,1.61
392,,1.62
393,,1.62
394,,1.63
395,,1.63
396,,1.63
397,,1.64
398,,1.64
399,,1.65
400,,1.65
401,,1.65
402,,1.66
403,,1.66
404,,1.67
405,,1.67
406,,1.67
407,,1.68
408,,1.68
409,,1.69
410,,1.69
411,,1.69
412,,1.7
413,,1.7
414,,1.71
415,,1.71
416,,1.71
417,,1.72
418,,1.72
419,,1.73
420,,1.73
421,,1.73
422,,1.74
423,,1.74
424,,1.75
425,,1.75
426,,1.75
427,,1.76
428,,1.76
429,,1.77
430,,1.77
431,,1.77
432,,1.78
433,,1.78
434,,1.79
435,,1.79
436,,1.79
437,,1.8
438,,1.8
439,,1.81
440,,1.81
441,,1.81
442,,1.82
443,,1.82
444,,1.83
445,,1.83
446,,1.83
447,,1.84
448,,1.84
449,,1.85
450,,1.85
451,,1.85
452,,1.86
453,,1.86
454,,1.87
455,,1.87
456,,1.87
457,,1.88
458,,1.88
459,,1.89
460,,1.89
461,,1.89
462,,1.9
463,,1.9
464,,1.91
465,,1.91
466,,1.91
467,,1.92
468,,1.92
469,,1.93
470,,1.93
471,,1.93
472,,1.94
473,,1.94
474,,1.95
475,,1.95
476,,1.95
477,,1.96
478,,1.96
479,,1.97
480,,1.97
481,,1.97
482,,1.98
483,,1.98
484,,1.99
485,,1.99
486,,1.99
487,,2.0
488,,2.0
489,,2.01
490,,2.01
491,,2.01
492,,2.02
493,,2.02
494,,2.03
495,,2.03
496,,2.03
497,,2.04
498,,2.04
499,,2.05
500,,2.05
501,,2.05
502,,2.06
503,,2.06
504,,2.07
505,,2.07
506,,2.07
507,,2.08
508,,2.08
509,,2.09
510,,2.09
511,,2.09
512,,2.1
513,,2.1
514,,2.11
515,,2.11
516,,2.11
517,,2.12
518,,2.12
519,,2.13
520,,2.13
521,,2.13
522,,2.14
523,,2.14
524,,2.15
525,,2.15
526,,2.15
527,,2.16
528,,2.16
529,,2.17
530,,2.17
531,,2.17
532,,2.18
533,,2.18
534,,2.19
535,,2.19
536,,2.19
537,,2.2
538,,2.2
539,,2.21
540,,2.21
541,,2.21
542,,2.22
543,,2.22
544,,2.23
545,,2.23
546,,2.23
547,,2.24
548,,2.24
549,,2.25
550,,2.25
551,,2.25
552,,2.26
553,,2.26
554,,2.27
555,,2.27
556,,2.27
557,,2.28
558,,2.28
559,,2.29
560,,2.29
561,,2.29
562,,2.3
563,,2.3
564,,2.31
565,,2.31
566,,2.31
567,,2.32
568,,2.32
569,,2.33
570,,2.33
571,,2.33
572,,2.34
573,,2.34
574,,2.35
575,,2.35
576,,2.35
577,,2.36
578,,2.36
579,,2.37
580,,2.37
581,,2.37
582,,2.38
583,,2.38
584,,2.39
585,,2.39
586,,2.39
587,,2.4
588,,2.4
589,,2.41
590,,2.41
591,,2.41
592,,2.42
593,,2.42
594,,2.43
595,,2.43
596,,2.43
597,,2.44
598,,2.44
599,,2.45
600,,2.45
601,,2.45
602,,2.46
603,,2.46
604,,2.47
605,,2.47
606,,2.47
607,,2.48
608,,2.48
609,,2.49
610,,2.49
611,,2.49
612,,2.5
613,,2.5
614,,2.51
615,,2.51
616,,2.51
617,,2.52
618,,2.52
619,,2.53
620,,2.53
621,,2.53
622,,2.54
623,,2.54
624,,2.55
625,,2.55
626,,2.55
627,,2.56
628,,2.56
629,,2.57
630,,2.57
631,,2.57
632,,2.58
633,,2.58
634,,2.59
635,,2.59
636,,2.59
637,,2.6
638,,2.6
639,,2.61
640,,2.61
641,,2.61
642,,2.62
643,,2.62
644,,2.63
645,,2.63
646,,2.63
647,,2.64
648,,2.64
649,,2.65
650,,2.65
651,,2.65
652,,2.66
653,,2.66
654,,2.67
655,,2.67
656,,2.67
657,,2.68
658,,2.68
659,,2.69
660,,2.69
661,,2.69
662,,2.7
663,,2.7
664,,2.71
665,,2.71
666,,2.71
667,,2.72
668,,2.72
669,,2.73
670,,2.73
671,,2.73
672,,2.74
673,,2.74
674,,2.75
675,,2.75
676,,2.75
677,,2.76
678,,2.76
679,,2.77
680,,2.77
681,,2.77
682,,2.78
683,,2.78
684,,2.79
685,,2.79
686,,2.79
687,,2.8
688,,2.8
689,,2.81
690,,2.81
691,,2.81
692,,2.82
693,,2.82
694,,2.83
695,,2.83
696,,2.83
697,,2.84
698,,2.84
699,,2.85
700,,2.85
701,,2.85
702,,2.86
703,,2.86
704,,2.87
705,,2.87
706,,2.87
707,,2.88
708,,2.88
709,,2.89
710,,2.89
711,,2.89
712,,2.9
713,,2.9
714,,2.91
715,,2.91
716,,2.91
717,,2.92
718,,2.92
719,,2.93
720,,2.93
721,,2.93
722,,2.94
723,,2.94
724,,2.95
725,,2.95
726,,2.95
727,,2.96
728,,2.96
729,,2.97
730,,2.97
731,,2.97
732,,2.98
733,,2.98
734,,2.99
735,,2.99
736,,2.99
737,,3.0
738,,3.0
739,,3.01
740,,3.01
741,,3.01
742,,3.02
743,,3.02
744,,3.03
745,,3.03
746,,3.03
747,,3.04
748,,3.04
749,,3.05
750,,3.05
751,,3.05
752,,3.06
753,,3.06
754,,3.07
755,,3.07
756,,3.07
757,,3.08
758,,3.08
759,,3.09
760,,3.09
761,,3.09
762,,3.1
763,,3.1
764,,3.11
765,,3.11
766,,3.11
767,,3.12
768,,3.12
769,,3.13
770,,3.13
771,,3.13
772,,3.14
773,,3.14
774,,3.15
775,,3.15
776,,3.15
777,,3.16
778,,3.16
779,,3.17
780,,3.17
781,,3.17
782,,3.18
783,,3.18
784,,3.19
785,,3.19
786,,3.19
787,,3.2
788,,3.2
789,,3.21
790,,3.21
791,,3.21
792,,3.22
793,,3.22
794,,3.23
795,,3.23
796,,3.23
797,,3.24
798,,3.24
799,,3.25
800,,3.25
801,,3.25
802,,3.26
803,,3.26
804,,3.27
805,,3.27
806,,3.27
807,,3.28
808,,3.28
809,,3.29
810,,3.29
811,,3.29
812,,3.3
813,,3.3
814,,3.31
815,,3.31
816,,3.31
817,,3.32
818,,3.32
819,,3.33
820,,3.33
821,,3.33
822,,3.34
823,,3.34
824,,3.35
825,,3.35
826,,3.35
827,,3.36
828,,3.36
829,,3.37
830,,3.37
831,,3.37
832,,3.38
833,,3.38
834,,3.39
835,,3.39
836,,3.39
837,,3.4
838,,3.4
839,,3.41
840,,3.41
841,,3.41
842,,3.42
843,,3.42
844,,3.43
845,,3.43
846,,3.43
847,,3.44
848,,3.44
849,,3.45
850,,3.45
851,,3.45
852,,3.46
853,,3.46
854,,3.47
855,,3.47
856,,3.47
857,,3.48
858,,3.48
859,,3.49
860,,3.49
861,,3.49
862,,3.5
863,,3.5
864,,3.51
865,,3.51
866,,3.51
867,,3.52
868,,3.52
869,,3.53
870,,3.53
871,,3.53
872,,3.54
873,,3.54
874,,3.55
875,,3.55
876,,3.55
877,,3.56
878,,3.56
879,,3.57
880,,3.57
881,,3.57
882,,3.58
883,,3.58
884,,3.59
885,,3.59
886,,3.59
887,,3.6
888,,3.6
889,,3.61
890,,3.61
891,,3.61
892,,3.62
893,,3.62
894,,3.63
895,,3.63
896,,3.63
897,,3.64
898,,3.64
899,,3.65
900,,3.65
901,,3.65
902,,3.66
903,,3.66
904,,3.67
905,,3.67
906,,3.67
907,,3.68
908,,3.68
909,,3.69
910,,3.69
911,,3.69
912,,3.7
913,,3.7
914,,3.71
915,,3.71
916,,3.71
917,,3.72
918,,3.72
919,,3.73
920,,3.73
921,,3.73
922,,3.74
923,,3.74
924,,3.75
925,,3.75
926,,3.75
927,,3.76
928,,3.76
929,,3.77
930,,3.77
931,,3.77
932,,3.78
933,,3.78
934,,3.79
935,,3.79
936,,3.79
937,,3.8
938,,3.8
939,,3.81
940,,3.81
941,,3.81
942,,3.82
943,,3.82
944,,3.83
945,,3.83
946,,3.83
947,,3.84
948,,3.84
949,,3.85
950,,3.85
951,,3.85
952,,3.86
953,,3.86
954,,3.87
955,,3.87
956,,3.87
957,,3.88
958,,3.88
959,,3.89
960,,3.89
961,,3.89
962,,3.9
963,,3.9
964,,3.91
965,,3.91
966,,3.91
967,,3.92
968,,3.92
969,,3.93
970,,3.93
971,,3.93
972,,3.94
973,,3.94
974,,3.95
975,,3.95
976,,3.95
977,,3.96
978,,3.96
979,,3.97
980,,3.97
981,,3.97
982,,3.98
983,,3.98
984,,3.99
985,,3.99
986,,3.99
987,,4.0
988,,4.0
989,,4.01
990,,4.01
991,,4.01
992,,4.02
993,,4.02
994,,4.03
995,,4.03
996,,4.03
997,,4.04
998,,4.04
999,,4.05
1000,,4.05
1001,,4.05
1002,,4.06
1003,,4.06
1004,,4.07
1005,,4.07
1006,,4.07
1007,,4.08
1008,,4.08
1009,,4.09
1010,,4.09
1011,,4.09
1012,,4.1
1013,,4.1
1014,,4.11
1015,,4.11
1016,,4.11
1017,,4.12
1018,,4.12
1019,,4.13
1020,,4.13
1021,,4.13
1022,,4.14
1023,,4.14
1024,,4.15
1025,,4.15
1026,,4.15
1027,,4.16
1028,,4.16
1029,,4.17
1030,,4.17
1031,,4.17
1032,,4.18
1033,,4.18
1034,,4.19
1035,,4.19
1036,,4.19
1037,,4.2
1038,,4.2
1039,,4.21
1040,,4.21
1041,,4.21
1042,,4.22
1043,,4.22
1044,,4.23
1045,,4.23
1046,,4.23
1047,,4.24
1048,,4.24
1049,,4.25
1050,,4.25
1051,,4.25
1052,,4.26
1053,,4.26
1054,,4.27
1055,,4.27
1056,,4.27
1057,,4.28
1058,,4.28
1059,,4.29
1060,,4.29
1061,,4.29
1062,,4.3
1063,,4.3
1064,,4.31
1065,,4.31
1066,,4.31
1067,,4.32
1068,,4.32
1069,,4.33
1070,,4.33
1071,,4.33
1072,,4.34
1073,,4.34
1074,,4.35
1075,,4.35
1076,,4.35
1077,,4.36
1078,,4.36
1079,,4.37
1080,,4.37
1081,,4.37
1082,,4.38
1083,,4.38
1084,,4.39
1085,,4.39
1086,,4.39
1087,,4.4
1088,,4.4
1089,,4.41
1090,,4.41
1091,,4.41
1092,,4.42
1093,,4.42
1094,,4.43
1095,,4.43
1096,,4.43
1097,,4.44
1098,,4.44
1099,,4.45
1100,,4.45
1101,,4.45
1102,,4.46
1103,,4.46
1104,,4.47
1105,,4.47
1106,,4.47
1107,,4.48
1108,,4.48
1109,,4.49
1110,,4.49
1111,,4.49
1112,,4.5
1113,,4.5
1114,,4.51
1115,,4.51
1116,,4.51
1117,,4.52
1118,,4.52
1119,,4.53
1120,,4.53
1121,,4.53
1122,,4.54
1123,,4.54
1124,,4.55
1125,,4.55
1126,,4.55
1127,,4.56
1128,,4.56
1129,,4.57
1130,,4.57
1131,,4.57
1132,,4.58
1133,,4.58
1134,,4.59
1135,,4.59
1136,,4.59
1137,,4.6
1138,,4.6
1139,,4.61
1140,,4.61
1141,,4.61
1142,,4.62
1143,,4.62
1144,,4.63
1145,,4.63
1146,,4.63
1147,,4.64
1148,,4.64
1149,,4.65
1150,,4.65
1151,,4.65
1152,,4.66
1153,,4.66
1154,,4.67
1155,,4.67
1156,,4.67
1157,,4.68
1158,,4.68
1159,,4.69
1160,,4.69
1161,,4.69
1162,,4.7
1163,,4.7
1164,,4.71
1165,,4.71
1166,,4.71
1167,,4.72
1168,,4.72
1169,,4.73
1170,,4.73
1171,,4.73
1172,,4.74
1173,,4.74
1174,,4.75
1175,,4.75
1176,,4.75
1177,,4.76
1178,,4.76
1179,,4.77
1180,,4.77
1181,,4.77
1182,,4.78
1183,,4.78
1184,,4.79
1185,,4.79
1186,,4.79
1187,,4.8
1188,,4.8
1189,,4.81
1190,,4.81
1191,,4.81
1192,,4.82
1193,,4.82
1194,,4.83
1195,,4.83
1196,,4.83
1197,,4.84
1198,,4.84
1199,,4.85
1200,,4.85
1201,,4.85
1202,,4.86
1203,,4.86
1204,,4.87
1205,,4.87
1206,,4.87
1207,,4.88
1208,,4.88
1209,,4.89
1210,,4.89
1211,,4.89
1212,,4.9
1213,,4.9
1214,,4.91
1215,,4.91
1216,,4.91
1217,,4.92
1218,,4.92
1219,,4.93
1220,,4.93
1221,,4.93
1222,,4.94
1223,,4.94
1224,,4.95
1225,,4.95
1226,,4.95
1227,,4.96
1228,,4.96
1229,,4.97
1230,,4.97
1231,,4.97
1232,,4.98
1233,,4.98
1234,,4.99
1235,,4.99
1236,,4.99
1237,,5.0
1238,,5.0
1239,,5.01
1240,,5.01
1241,,5.01
1242,,5.02
1243,,5.02
1244,,5.03
1245,,5.03
1246,,5.03
1247,,5.04
1248,,5.04
1249,,5.05
1250,,5.05
1251,,5.05
1252,,5.06
1253,,5.06
1254,,5.07
1255,,5.07
1256,,5.07
1257,,5.08
1258,,5.08
1259,,5.09
1260,,5.09
1261,,5.09
1262,,5.1
1263,,5.1
1264,,5.11
1265,,5.11
1266,,5.11
1267,,5.12
1268,,5.12
1269,,5.13
1270,,5.13
1271,,5.13
1272,,5.14
1273,,5.14
1274,,5.15
1275,,5.15
1276,,5.15
1277,,5.16
1278,,5.16
1279,,5.17
1280,,5.17
1281,,5.17
1282,,5.18
1283,,5.18
1284,,5.19
1285,,5.19
1286,,5.19
1287,,5.2
1288,,5.2
1289,,5.21
1290,,5.21
1291,,5.21
1292,,5.22
1293,,5.22
1294,,5.23
1295,,5.23
1296,,5.23
1297,,5.24
1298,,5.24
1299,,5.25
1300,,5.25
1301,,5.25
1302,,5.26
1303,,5.26
1304,,5.27
1305,,5.27
1306,,5.27
1307,,5.28
1308,,5.28
1309,,5.29
1310,,5.29
1311,,5.29
1312,,5.3
1313,,5.3
1314,,5.31
1315,,5.31
1316,,5.31
1317,,5.32
1318,,5.32
1319,,5.33
1320,,5.33
1321,,5.33
1322,,5.34
1323,,5.34
1324,,5.35
1325,,5.35
1326,,5.35
1327,,5.36
1328,,5.36
1329,,5.37
1330,,5.37
1331,,5.37
1332,,5.38
1333,,5.38
1334,,5.39
1335,,5.39
1336,,5.39
1337,,5.4
1338,,5.4
1339,,5.41
1340,,5.41
1341,,5.41
1342,,5.42
1343,,5.42
1344,,5.43
1345,,5.43
1346,,5.43
1347,,5.44
1348,,5.44
1349,,5.45
1350,,5.45
1351,,5.45
1352,,5.46
1353,,5.46
1354,,5.47
1355,,5.47
1356,,5.47
1357,,5.48
1358,,5.48
1359,,5.49
1360,,5.49
1361,,5.49
1362,,5.5
1363,,5.5
1364,,5.51
1365,,5.51
1366,,5.51
1367,,5.52
1368,,5.52
1369,,5.53
1370,,5.53
1371,,5.53
1372,,5.54
1373,,5.54
1374,,5.55
1375,,5.55
1376,,5.55
1377,,5.56
1378,,5.56
1379,,5.57
1380,,5.57
1381,,5.57
1382,,5.58
1383,,5.58
1384,,5.59
1385,,5.59
1386,,5.59
1387,,5.6
1388,,5.6
1389,,5.61
1390,,5.61
1391,,5.61
1392,,5.62
1393,,5.62
1394,,5.63
1395,,5.63
1396,,5.63
1397,,5.64
1398,,5.64
1399,,5.65
1400,,5.65
1401,,5.65
1402,,5.66
1403,,5.66
1404,,5.67
1405,,5.67
1406,,5.67
1407,,5.68
1408,,5.68
1409,,5.69
1410,,5.69
1411,,5.69
1412,,5.7
1413,,5.7
1414,,5.71
1415,,5.71
1416,,5.71
1417,,5.72
1418,,5.72
1419,,5.73
1420,,5.73
1421,,5.73
1422,,5.74
1423,,5.74
1424,,5.75
1425,,5.75
1426,,5.75
1427,,5.76
1428,,5.76
1429,,5.77
1430,,5.77
1431,,5.77
1432,,5.78
1433,,5.78
1434,,5.79
1435,,5.79
1436,,5.79
1437,,5.8
1438,,5.8
1439,,5.81
1440,,5.81
1441,,5.81
1442,,5.82
1443,,5.82
1444,,5.83
1445,,5.83
1446,,5.83
1447,,5.84
1448,,5.84
1449,,5.85
1450,,5.85
1451,,5.85
1452,,5.86
1453,,5.86
1454,,5.87
1455,,5.87
1456,,5.87
1457,,5.88
1458,,5.88
1459,,5.89
1460,,5.89
1461,,5.89
1462,,5.9
1463,,5.9
1464,,5.91
1465,,5.91
1466,,5.91
1467,,5.92
1468,,5.92
1469,,5.93
1470,,5.93
1471,,5.93
1472,,5.94
1473,,5.94
1474,,5.95
1475,,5.95
1476,,5.95
1477,,5.96
1478,,5.96
1479,,5.97
1480,,5.97
1481,,5.97
1482,,5.98
1483,,5.98
1484,,5.99
1485,,5.99
1486,,5.99
1487,,6.0
1488,,6.0
1489,,6.01
1490,,6.01
1491,,6.01
1492,,6.02
1493,,6.02
1494,,6.03
1495,,6.03
1496,,6.03
1497,,6.04
1498,,6.04
1499,,6.05
1500,,6.05
1501,,6.05
1502,,6.06
1503,,6.06
1504,,6.07
1505,,6.07
1506,,6.07
1507,,6.08
1508,,6.08
1509,,6.09
1510,,6.09
1511,,6.09
1512,,6.1
1513,,6.1
1514,,6.11
1515,,6.11
1516,,6.11
1517,,6.12
1518,,6.12
1519,,6.13
1520,,6.13
1521,,6.13
1522,,6.14
1523,,6.14
1524,,6.15
1525,,6.15
1526,,6.15
1527,,6.16
1528,,6.16
1529,,6.17
1530,,6.17
1531,,6.17
1532,,6.18
1533,,6.18
1534,,6.19
1535,,6.19
1536,,6.19
1537,,6.2
1538,,6.2
1539,,6.21
1540,,6.21
1541,,6.21
1542,,6.22
1543,,6.22
1544,,6.23
1545,,6.23
1546,,6.23
1547,,6.24
1548,,6.24
1549,,6.25
1550,,6.25
1551,,6.25
1552,,6.26
1553,,6.26
1554,,6.27
1555,,6.27
1556,,6.27
1557,,6.28
1558,,6.28
1559,,6.29
1560,,6.29
1561,,6.29
1562,,6.3
1563,,6.3
1564,,6.31
1565,,6.31
1566,,6.31
1567,,6.32
1568,,6.32
1569,,6.33
1570,,6.33
1571,,6.33
1572,,6.34
1573,,6.34
1574,,6.35
1575,,6.35
1576,,6.35
1577,,6.36
1578,,6.36
1579,,6.37
1580,,6.37
1581,,6.37
1582,,6.38
1583,,6.38
1584,,6.39
1585,,6.39
1586,,6.39
1587,,6.4
1588,,6.4
1589,,6.41
1590,,6.41
1591,,6.41
1592,,6.42
1593,,6.42
1594,,6.43
1595,,6.43
1596,,6.43
1597,,6.44
1598,,6.44
1599,,6.45
1600,,6.45
1601,,6.45
1602,,6.46
1603,,6.46
1604,,6.47
1605,,6.47
1606,,6.47
1607,,6.48
1608,,6.48
1609,,6.49
1610,,6.49
1611,,6.49
1612,,6.5
1613,,6.5
1614,,6.51
1615,,6.51
1616,,6.51
1617,,6.52
1618,,6.52
1619,,6.53
1620,,6.53
1621,,6.53
1622,,6.54
1623,,6.54
1624,,6.55
1625,,6.55
1626,,6.55
1627,,6.56
1628,,6.56
1629,,6.57
1630,,6.57
1631,,6.57
1632,,6.58
1633,,6.58
1634,,6.59
1635,,6.59
1636,,6.59
1637,,6.6
1638,,6.6
1639,,6.61
1640,,6.61
1641,,6.61
1642,,6.62
1643,,6.62
1644,,6.63
1645,,6.63
1646,,6.63
1647,,6.64
1648,,6.64
1649,,6.65
1650,,6.65
1651,,6.65
1652,,6.66
1653,,6.66
1654,,6.67
1655,,6.67
1656,,6.67
1657,,6.68
1658,,6.68
1659,,6.69
1660,,6.69
1661,,6.69
1662,,6.7
1663,,6.7
1664,,6.71
1665,,6.71
1666,,6.71
1667,,6.72
1668,,6.72
1669,,6.73
1670,,6.73
1671,,6.73
1672,,6.74
1673,,6.74
1674,,6.75
1675,,6.75
1676,,6.75
1677,,6.76
1678,,6.76
1679,,6.77
1680,,6.77
1681,,6.77
1682,,6.78
1683,,6.78
1684,,6.79
1685,,6.79
1686,,6.79
1687,,6.8
1688,,6.8
1689,,6.81
1690,,6.81
1691,,6.81
1692,,6.82
1693,,6.82
1694,,6.83
1695,,6.83
1696,,6.83
1697,,6.84
1698,,6.84
1699,,6.85
1700,,6.85
1701,,6.85
1702,,6.86
1703,,6.86
1704,,6.87
1705,,6.87
1706,,6.87
1707,,6.88
1708,,6.88
1709,,6.89
1710,,6.89
1711,,6.89
1712,,6.9
1713,,6.9
1714,,6.91
1715,,6.91
1716,,6.91
1717,,6.92
1718,,6.92
1719,,6.93
1720,,6.93
1721,,6.93
1722,,6.94
1723,,6.94
1724,,6.95
1725,,6.95
1726,,6.95
1727,,6.96
1728,,6.96
1729,,6.97
1730,,6.97
1731,,6.97
1732,,6.98
1733,,6.98
1734,,6.99
1735,,6.99
1736,,6.99
1737,,7.0
1738,,7.0
1739,,7.01
1740,,7.01
1741,,7.01
1742,,7.02
1743,,7.02
1744,,7.03
1745,,7.03
1746,,7.03
1747,,7.04
1748,,7.04
1749,,7.05
1750,,7.05
1751,,7.05
1752,,7.06
1753,,7.06
1754,,7.07
1755,,7.07
1756,,7.07
1757,,7.08
1758,,7.08
1759,,7.09
1760,,7.09
1761,,7.09
1762,,7.1
1763,,7.1
1764,,7.11
1765,,7.11
1766,,7.11
1767,,7.12
1768,,7.12
1769,,7.13
1770,,7.13
1771,,7.13
1772,,7.14
1773,,7.14
1774,,7.15
1775,,7.15
1776,,7.15
1777,,7.16
1778,,7.16
1779,,7.17
1780,,7.17
1781,,7.17
1782,,7.18
1783,,7.18
1784,,7.19
1785,,7.19
1786,,7.19
1787,,7.2
1788,,7.2
1789,,7.21
1790,,7.21
1791,,7.21
1792,,7.22
1793,,7.22
1794,,7.23
1795,,7.23
1796,,7.23
1797,,7.24
1798,,7.24
1799,,7.25
1800,,7.25
1801,,7.25
1802,,7.26
1803,,7.26
1804,,7.27
1805,,7.27
1806,,7.27
1807,,7.28
1808,,7.28
1809,,7.29
1810,,7.29
1811,,7.29
1812,,7.3
1813,,7.3
1814,,7.31
1815,,7.31
1816,,7.31
1817,,7.32
1818,,7.32
1819,,7.33
1820,,7.33
1821,,7.33
1822,,7.34
1823,,7.34
1824,,7.35
1825,,7.35
1826,,7.35
1827,,7.36
1828,,7.36
1829,,7.37
1830,,7.37
1831,,7.37
1832,,7.38
1833,,7.38
1834,,7.39
1835,,7.39
1836,,7.39
1837,,7.4
1838,,7.4
1839,,7.41
1840,,7.41
1841,,7.41
1842,,7.42
1843,,7.42
1844,,7.43
1845,,7.43
1846,,7.43
1847,,7.44
1848,,7.44
1849,,7.45
1850,,7.45
1851,,7.45
1852,,7.46
1853,,7.46
1854,,7.47
1855,,7.47
1856,,7.47
1857,,7.48
1858,,7.48
1859,,7.49
1860,,7.49
1861,,7.49
1862,,7.5
1863,,7.5
1864,,7.51
1865,,7.51
1866,,7.51
1867,,7.52
1868,,7.52
1869,,7.53
1870,,7.53
1871,,7.53
1872,,7.54
1873,,7.54
1874,,7.55
1875,,7.55
1876,,7.55
1877,,7.56
1878,,7.56
1879,,7.57
1880,,7.57
1881,,7.57
1882,,7.58
1883,,7.58
1884,,7.59
1885,,7.59
1886,,7.59
1887,,7.6
1888,,7.6
1889,,7.61
1890,,7.61
1891,,7.61
1892,,7.62
1893,,7.62
1894,,7.63
1895,,7.63
1896,,7.63
1897,,7.64
1898,,7.64
1899,,7.65
1900,,7.65
1901,,7.65
1902,,7.66
1903,,7.66
1904,,7.67
1905,,7.67
1906,,7.67
1907,,7.68
1908,,7.68
1909,,7.69
1910,,7.69
1911,,7.69
1912,,7.7
1913,,7.7
1914,,7.71
1915,,7.71
1916,,7.71
1917,,7.72
1918,,7.72
1919,,7.73
1920,,7.73
1921,,7.73
1922,,7.74
1923,,7.74
1924,,7.75
1925,,7.75
1926,,7.75
1927,,7.76
1928,,7.76
1929,,7.77
1930,,7.77
1931,,7.77
1932,,7.78
1933,,7.78
1934,,7.79
1935,,7.79
1936,,7.79
1937,,7.8
1938,,7.8
1939,,7.81
1940,,7.81
1941,,7.81
1942,,7.82
1943,,7.82
1944,,7.83
1945,,7.83
1946,,7.83
1947,,7.84
1948,,7.84
1949,,7.85
1950,,7.85
1951,,7.85
1952,,7.86
1953,,7.86
1954,,7.87
1955,,7.87
1956,,7.87
1957,,7.88
1958,,7.88
1959,,7.89
1960,,7.89
1961,,7.89
1962,,7.9
1963,,7.9
1964,,7.91
1965,,7.91
1966,,7.91
1967,,7.92
1968,,7.92
1969,,7.93
1970,,7.93
1971,,7.93
1972,,7.94
1973,,7.94
1974,,7.95
1975,,7.95
1976,,7.95
1977,,7.96
1978,,7.96
1979,,7.97
1980,,7.97
1981,,7.97
1982,,7.98
1983,,7.98
1984,,7.99
1985,,7.99
1986,,7.99
1987,,8.0
1988,,8.0
1989,,8.01
1990,,8.01
1991,,8.01
1992,,8.02
1993,,8.02
1994,,8.03
1995,,8.03
1996,,8.03
1997,,8.04
1998,,8.04
1999,,8.05
2000,,8.05
2001,,8.05
2002,,8.06
2003,,8.06
2004,,8.07
2005,,8.07
2006,,8.07
2007,,8.08
2008,,8.08
2009,,8.09
2010,,8.09
2011,,8.09
2012,,8.1
2013,,8.1
2014,,8.11
2015,,8.11
2016,,8.11
2017,,8.12
2018,,8.12
2019,,8.13
2020,,8.13
2021,,8.13
2022,,8.14
2023,,8.14
2024,,8.15
2025,,8.15
2026,,8.15
2027,,8.16
2028,,8.16
2029,,8.17
2030,,8.17
2031,,8.17
2032,,8.18
2033,,8.18
2034,,8.19
2035,,8.19
2036,,8.19
2037,,8.2
2038,,8.2
2039,,8.21
2040,,8.21
2041,,8.21
2042,,8.22
2043,,8.22
2044,,8.23
2045,,8.23
2046,,8.23
2047,,8.24
2048,,8.24
2049,,8.25
2050,,8.25
2051,,8.25
2052,,8.26
2053,,8.26
2054,,8.27
2055,,8.27
2056,,8.27
2057,,8.28
2058,,8.28
2059,,8.29
2060,,8.29
2061,,8.29
2062,,8.3
2063,,8.3
2064,,8.31
2065,,8.31
2066,,8.31
2067,,8.32
2068,,8.32
2069,,8.33
2070,,8.33
2071,,8.33
2072,,8.34
2073,,8.34
2074,,8.35
2075,,8.35
2076,,8.35
2077,,8.36
2078,,8.36
2079,,8.37
2080,,8.37
2081,,8.37
2082,,8.38
2083,,8.38
2084,,8.39
2085,,8.39
2086,,8.39
2087,,8.4
2088,,8.4
2089,,8.41
2090,,8.41
2091,,8.41
2092,,8.42
2093,,8.42
2094,,8.43
2095,,8.43
2096,,8.43
2097,,8.44
2098,,8.44
2099,,8.45
2100,,8.45
2101,,8.45
2102,,8.46
2103,,8.46
2104,,8.47
2105,,8.47
2106,,8.47
2107,,8.48
2108,,8.48
2109,,8.49
2110,,8.49
2111,,8.49
2112,,8.5
2113,,8.5
2114,,8.51
2115,,8.51
2116,,8.51
2117,,8.52
2118,,8.52
2119,,8.53
2120,,8.53
2121,,8.53
2122,,8.54
2123,,8.54
2124,,8.55
2125,,8.55
2126,,8.55
2127,,8.56
2128,,8.56
2129,,8.57
2130,,8.57
2131,,8.57
2132,,8.58
2133,,8.58
2134,,8.59
2135,,8.59
2136,,8.59
2137,,8.6
2138,,8.6
2139,,8.61
2140,,8.61
2141,,8.61
2142,,8.62
2143,,8.62
2144,,8.63
2145,,8.63
2146,,8.63
2147,,8.64
2148,,8.64
2149,,8.65
2150,,8.65
2151,,8.65
2152,,8.66
2153,,8.66
2154,,8.67
2155,,8.67
2156,,8.67
2157,,8.68
2158,,8.68
2159,,8.69
2160,,8.69
2161,,8.69
2162,,8.7
2163,,8.7
2164,,8.71
2165,,8.71
2166,,8.71
2167,,8.72
2168,,8.72
2169,,8.73
2170,,8.73
2171,,8.73
2172,,8.74
2173,,8.74
2174,,8.75
2175,,8.75
2176,,8.75
2177,,8.76
2178,,8.76
2179,,8.77
2180,,8.77
2181,,8.77
2182,,8.78
2183,,8.78
2184,,8.79
2185,,8.79
2186,,8.79
2187,,8.8
2188,,8.8
2189,,8.81
2190,,8.81
2191,,8.81
2192,,8.82
2193,,8.82
2194,,8.83
2195,,8.83
2196,,8.83
2197,,8.84
2198,,8.84
2199,,8.85
2200,,8.85
2201,,8.85
2202,,8.86
2203,,8.86
2204,,8.87
2205,,8.87
2206,,8.87
2207,,8.88
2208,,8.88
2209,,8.89
2210,,8.89
2211,,8.89
2212,,8.9
2213,,8.9
2214,,8.91
2215,,8.91
2216,,8.91
2217,,8.92
2218,,8.92
2219,,8.93
2220,,8.93
2221,,8.93
2222,,8.94
2223,,8.94
2224,,8.95
2225,,8.95
2226,,8.95
2227,,8.96
2228,,8.96
2229,,8.97
2230,,8.97
2231,,8.97
2232,,8.98
2233,,8.98
2234,,8.99
2235,,8.99
2236,,8.99
2237,,9.0
2238,,9.0
2239,,9.01
2240,,9.01
2241,,9.01
2242,,9.02
2243,,9.02
2244,,9.03
2245,,9.03
2246,,9.03
2247,,9.04
2248,,9.04
2249,,9.05
2250,,9.05
2251,,9.05
2252,,9.06
2253,,9.06
2254,,9.07
2255,,9.07
2256,,9.07
2257,,9.08
2258,,9.08
2259,,9.09
2260,,9.09
2261,,9.09
2262,,9.1
2263,,9.1
2264,,9.11
2265,,9.11
2266,,9.11
2267,,9.12
2268,,9.12
2269,,9.13
2270,,9.13
2271,,9.13
2272,,9.14
2273,,9.14
2274,,9.15
2275,,9.15
2276,,9.15
2277,,9.16
2278,,9.16
2279,,9.17
2280,,9.17
2281,,9.17
2282,,9.18
2283,,9.18
2284,,9.19
2285,,9.19
2286,,9.19
2287,,9.2
2288,,9.2
2289,,9.21
2290,,9.21
2291,,9.21
2292,,9.22
2293,,9.22
2294,,9.23
2295,,9.23
2296,,9.23
2297,,9.24
2298,,9.24
2299,,9.25
2300,,9.25
2301,,9.25
2302,,9.26
2303,,9.26
2304,,9.27
2305,,9.27
2306,,9.27
2307,,9.28
2308,,9.28
2309,,9.29
2310,,9.29
2311,,9.29
2312,,9.3
2313,,9.3
2314,,9.31
2315,,9.31
2316,,9.31
2317,,9.32
2318,,9.32
2319,,9.33
2320,,9.33
2321,,9.33
2322,,9.34
2323,,9.34
2324,,9.35
2325,,9.35
2326,,9.35
2327,,9.36
2328,,9.36
2329,,9.37
2330,,9.37
2331,,9.37
2332,,9.38
2333,,9.38
2334,,9.39
2335,,9.39
2336,,9.39
2337,,9.4
2338,,9.4
2339,,9.41
2340,,9.41
2341,,9.41
2342,,9.42
2343,,9.42
2344,,9.43
2345,,9.43
2346,,9.43
2347,,9.44
2348,,9.44
2349,,9.45
2350,,9.45
2351,,9.45
2352,,9.46
2353,,9.46
2354,,9.47
2355,,9.47
2356,,9.47
2357,,9.48
2358,,9.48
2359,,9.49
2360,,9.49
2361,,9.49
2362,,9.5
2363,,9.5
2364,,9.51
2365,,9.51
2366,,9.51
2367,,9.52
2368,,9.52
2369,,9.53
2370,,9.53
2371,,9.53
2372,,9.54
2373,,9.54
2374,,9.55
2375,,9.55
2376,,9.55
2377,,9.56
2378,,9.56
2379,,9.57
2380,,9.57
2381,,9.57
2382,,9.58
2383,,9.58
2384,,9.59
2385,,9.59
2386,,9.59
2387,,9.6
2388,,9.6
2389,,9.61
2390,,9.61
2391,,9.61
2392,,9.62
2393,,9.62
2394,,9.63
2395,,9.63
2396,,9.63
2397,,9.64
2398,,9.64
2399,,9.65
2400,,9.65
2401,,9.65
2402,,9.66
2403,,9.66
2404,,9.67
2405,,9.67
2406,,9.67
2407,,9.68
2408,,9.68
2409,,9.69
2410,,9.69
2411,,9.69
2412,,9.7
2413,,9.7
2414,,9.71
2415,,9.71
2416,,9.71
2417,,9.72
2418,,9.72
2419,,9.73
2420,,9.73
2421,,9.73
2422,,9.74
2423,,9.74
2424,,9.75
2425,,9.75
2426,,9.75
2427,,9.76
2428,,9.76
2429,,9.77
2430,,9.77
2431,,9.77
2432,,9.78
2433,,9.78
2434,,9.79
2435,,9.79
2436,,9.79
2437,,9.8
2438,,9.8
2439,,9.81
2440,,9.81
2441,,9.81
2442,,9.82
2443,,9.82
2444,,9.83
2445,,9.83
2446,,9.83
2447,,9.84
2448,,9.84
2449,,9.85
2450,,9.85
2451,,9.85
2452,,9.86
2453,,9.86
2454,,9.87
2455,,9.87
2456,,9.87
2457,,9.88
2458,,9.88
2459,,9.89
2460,,9.89
2461,,9.89
2462,,9.9
2463,,9.9
2464,,9.91
2465,,9.91
2466,,9.91
2467,,9.92
2468,,9.92
2469,,9.93
2470,,9.93
2471,,9.93
2472,,9.94
2473,,9.94
2474,,9.95
2475,,9.95
2476,,9.95
2477,,9.96
2478,,9.96
2479,,9.97
2480,,9.97
2481,,9.97
2482,,9.98
2483,,9.98
2484,,9.99
2485,,9.99
2486,,9.99
2487,,10.0
2488,,10.0
2489,,10.01
2490,,10.01
2491,,10.01
2492,,10.02
2493,,10.02
2494,,10.03
2495,,10.03
2496,,10.03
2497,,10.04
2498,,10.04
2499,,10.05
2500,,10.05
2501,,10.05
2502,,10.06
2503,,10.06
2504,,10.07
2505,,10.07
2506,,10.07
2507,,10.08
2508,,10.08
2509,,10.09
2510,,10.09
2511,,10.09
2512,,10.1
2513,,10.1
2514,,10.11
2515,,10.11
2516,,10.11
2517,,10.12
2518,,10.12
2519,,10.13
2520,,10.13
2521,,10.13
2522,,10.14
2523,,10.14
2524,,10.15
2525,,10.15
2526,,10.15
2527,,10.16
2528,,10.16
2529,,10.17
2530,,10.17
2531,,10.17
2532,,10.18
2533,,10.18
2534,,10.19
2535,,10.19
2536,,10.19
2537,,10.2
2538,,10.2
2539,,10.21
2540,,10.21
2541,,10.21
2542,,10.22
2543,,10.22
2544,,10.23
2545,,10.23
2546,,10.23
2547,,10.24
2548,,10.24
2549,,10.25
2550,,10.25
2551,,10.25
2552,,10.26
2553,,10.26
2554,,10.27
2555,,10.27
2556,,10.27
2557,,10.28
2558,,10.28
2559,,10.29
2560,,10.29
2561,,10.29
2562,,10.3
2563,,10.3
2564,,10.31
2565,,10.31
2566,,10.31
2567,,10.32
2568,,10.32
2569,,10.33
2570,,10.33
2571,,10.33
2572,,10.34
2573,,10.34
2574,,10.35
2575,,10.35
2576,,10.35
2577,,10.36
2578,,10.36
2579,,10.37
2580,,10.37
2581,,10.37
2582,,10.38
2583,,10.38
2584,,10.39
2585,,10.39
2586,,10.39
2587,,10.4
2588,,10.4
2589,,10.41
2590,,10.41
2591,,10.41
2592,,10.42
2593,,10.42
2594,,10.43
2595,,10.43
2596,,10.43
2597,,10.44
2598,,10.44
2599,,10.45
2600,,10.45
2601,,10.45
2602,,10.46
2603,,10.46
2604,,10.47
2605,,10.47
2606,,10.47
2607,,10.48
2608,,10.48
2609,,10.49
2610,,10.49
2611,,10.49
2612,,10.5
2613,,10.5
2614,,10.51
2615,,10.51
2616,,10.51
2617,,10.52
2618,,10.52
2619,,10.53
2620,,10.53
2621,,10.53
2622,,10.54
2623,,10.54
2624,,10.55
2625,,10.55
2626,,10.55
2627,,10.56
2628,,10.56
2629,,10.57
2630,,10.57
2631,,10.57
2632,,10.58
2633,,10.58
2634,,10.59
2635,,10.59
2636,,10.59
2637,,10.6
2638,,10.6
2639,,10.61
2640,,10.61
2641,,10.61
2642,,10.62
2643,,10.62
2644,,10.63
2645,,10.63
2646,,10.63
2647,,10.64
2648,,10.64
2649,,10.65
2650,,10.65
2651,,10.65
2652,,10.66
2653,,10.66
2654,,10.67
2655,,10.67
2656,,10.67
2657,,10.68
2658,,10.68
2659,,10.69
2660,,10.69
2661,,10.69
2662,,10.7
2663,,10.7
2664,,10.71
2665,,10.71
2666,,10.71
2667,,10.72
2668,,10.72
2669,,10.73
2670,,10.73
2671,,10.73
2672,,10.74
2673,,10.74
2674,,10.75
2675,,10.75
2676,,10.75
2677,,10.76
2678,,10.76
2679,,10.77
2680,,10.77
2681,,10.77
2682,,10.78
2683,,10.78
2684,,10.79
2685,,10.79
2686,,10.79
2687,,10.8
2688,,10.8
2689,,10.81
2690,,10.81
2691,,10.81
2692,,10.82
2693,,10.82
2694,,10.83
2695,,10.83
2696,,10.83
2697,,10.84
2698,,10.84
2699,,10.85
2700,,10.85
2701,,10.85
2702,,10.86
2703,,10.86
2704,,10.87
2705,,10.87
2706,,10.87
2707,,10.88
2708,,10.88
2709,,10.89
2710,,10.89
2711,,10.89
2712,,10.9
2713,,10.9
2714,,10.91
2715,,10.91
2716,,10.91
2717,,10.92
2718,,10.92
2719,,10.93
2720,,10.93
2721,,10.93
2722,,10.94
2723,,10.94
2724,,10.95
2725,,10.95
2726,,10.95
2727,,10.96
2728,,10.96
2729,,10.97
2730,,10.97
2731,,10.97
2732,,10.98
2733,,10.98
2734,,10.99
2735,,10.99
2736,,10.99
2737,,11.0
2738,,11.0
2739,,11.01
2740,,11.01
2741,,11.01
2742,,11.02
2743,,11.02
2744,,11.03
2745,,11.03
2746,,11.03
2747,,11.04
2748,,11.04
2749,,11.05
2750,,11.05
2751,,11.05
2752,,11.06
2753,,11.06
2754,,11.07
2755,,11.07
2756,,11.07
2757,,11.08
2758,,11.08
2759,,11.09
2760,,11.09
2761,,11.09
2762,,11.1
2763,,11.1
2764,,11.11
2765,,11.11
2766,,11.11
2767,,11.12
2768,,11.12
2769,,11.13
2770,,11.13
2771,,11.13
2772,,11.14
2773,,11.14
2774,,11.15
2775,,11.15
2776,,11.15
2777,,11.16
2778,,11.16
2779,,11.17
2780,,11.17
2781,,11.17
2782,,11.18
2783,,11.18
2784,,11.19
2785,,11.19
2786,,11.19
2787,,11.2
2788,,11.2
2789,,11.21
2790,,11.21
2791,,11.21
2792,,11.22
2793,,11.22
2794,,11.23
2795,,11.23
2796,,11.23
2797,,11.24
2798,,11.24
2799,,11.25
2800,,11.25
2801,,11.25
2802,,11.26
2803,,11.26
2804,,11.27
2805,,11.27
2806,,11.27
2807,,11.28
2808,,11.28
2809,,11.29
2810,,11.29
2811,,11.29
2812,,11.3
2813,,11.3
2814,,11.31
2815,,11.31
2816,,11.31
2817,,11.32
2818,,11.32
2819,,11.33
2820,,11.33
2821,,11.33
2822,,11.34
2823,,11.34
2824,,11.35
2825,,11.35
2826,,11.35
2827,,11.36
2828,,11.36
2829,,11.37
2830,,11.37
2831,,11.37
2832,,11.38
2833,,11.38
2834,,11.39
2835,,11.39
2836,,11.39
2837,,11.4
2838,,11.4
2839,,11.41
2840,,11.41
2841,,11.41
2842,,11.42
2843,,11.42
2844,,11.43
2845,,11.43
2846,,11.43
2847,,11.44
2848,,11.44
2849,,11.45
2850,,11.45
2851,,11.45
2852,,11.46
2853,,11.46
2854,,11.47
2855,,11.47
2856,,11.47
2857,,11.48
2858,,11.48
2859,,11.49
2860,,11.49
2861,,11.49
2862,,11.5
2863,,11.5
2864,,11.51
2865,,11.51
2866,,11.51
2867,,11.52
2868,,11.52
2869,,11.53
2870,,11.53
2871,,11.53
2872,,11.54
2873,,11.54
2874,,11.55
2875,,11.55
2876,,11.55
2877,,11.56
2878,,11.56
2879,,11.57
2880,,11.57
2881,,11.57
2882,,11.58
2883,,11.58
2884,,11.59
2885,,11.59
2886,,11.59
2887,,11.6
2888,,11.6
2889,,11.61
2890,,11.61
2891,,11.61
2892,,11.62
2893,,11.62
2894,,11.63
2895,,11.63
2896,,11.63
2897,,11.64
2898,,11.64
2899,,11.65
2900,,11.65
2901,,11.65
2902,,11.66
2903,,11.66
2904,,11.67
2905,,11.67
2906,,11.67
2907,,11.68
2908,,11.68
2909,,11.69
2910,,11.69
2911,,11.69
2912,,11.7
2913,,11.7
2914,,11.71
2915,,11.71
2916,,11.71
2917,,11.72
2918,,11.72
2919,,11.73
2920,,11.73
2921,,11.73
2922,,11.74
2923,,11.74
2924,,11.75
2925,,11.75
2926,,11.75
2927,,11.76
2928,,11.76
2929,,11.77
2930,,11.77
2931,,11.77
2932,,11.78
2933,,11.78
2934,,11.79
2935,,11.79
2936,,11.79
2937,,11.8
2938,,11.8
2939,,11.81
2940,,11.81
2941,,11.81
2942,,11.82
2943,,11.82
2944,,11.83
2945,,11.83
2946,,11.83
2947,,11.84
2948,,11.84
2949,,11.85
2950,,11.85
2951,,11.85
2952,,11.86
2953,,11.86
2954,,11.87
2955,,11.87
2956,,11.87
2957,,11.88
2958,,11.88
2959,,11.89
2960,,11.89
2961,,11.89
2962,,11.9
2963,,11.9
2964,,11.91
2965,,11.91
2966,,11.91
2967,,11.92
2968,,11.92
2969,,11.93
2970,,11.93
2971,,11.93
2972,,11.94
2973,,11.94
2974,,11.95
2975,,11.95
2976,,11.95
2977,,11.96
2978,,11.96
2979,,11.97
2980,,11.97
2981,,11.97
2982,,11.98
2983,,11.98
2984,,11.99
2985,,11.99
2986,,11.99
2987,,12.0
2988,,12.0
2989,,12.01
2990,,12.01
2991,,12.01
2992,,12.02
2993,,12.02
2994,,12.03
2995,,12.03
2996,,12.03
2997,,12.04
2998,,12.04
2999,,12.05
3000,,12.05
3001,,12.05
3002,,12.06
3003,,12.06
3004,,12.07
3005,,12.07
3006,,12.07
3007,,12.08
3008,,12.08
3009,,12.09
3010,,12.09
3011,,12.09
3012,,12.1
3013,,12.1
3014,,12.11
3015,,12.11
3016,,12.11
3017,,12.12
3018,,12.12
3019,,12.13
3020,,12.13
3021,,12.13
3022,,12.14
3023,,12.14
3024,,12.15
3025,,12.15
3026,,12.15
3027,,12.16
3028,,12.16
3029,,12.17
3030,,12.17
3031,,12.17
3032,,12.18
3033,,12.18
3034,,12.19
3035,,12.19
3036,,12.19
3037,,12.2
3038,,12.2
3039,,12.21
3040,,12.21
3041,,12.21
3042,,12.22
3043,,12.22
3044,,12.23
3045,,12.23
3046,,12.23
3047,,12.24
3048,,12.24
3049,,12.25
3050,,12.25
3051,,12.25
3052,,12.26
3053,,12.26
3054,,12.27
3055,,12.27
3056,,12.27
3057,,12.28
3058,,12.28
3059,,12.29
3060,,12.29
3061,,12.29
3062,,12.3
3063,,12.3
3064,,12.31
3065,,12.31
3066,,12.31
3067,,12.32
3068,,12.32
3069,,12.33
3070,,12.33
3071,,12.33
3072,,12.34
3073,,12.34
3074,,12.35
3075,,12.35
3076,,12.35
3077,,12.36
3078,,12.36
3079,,12.37
3080,,12.37
3081,,12.37
3082,,12.38
3083,,12.38
3084,,12.39
3085,,12.39
3086,,12.39
3087,,12.4
3088,,12.4
3089,,12.41
3090,,12.41
3091,,12.41
3092,,12.42
3093,,12.42
3094,,12.43
3095,,12.43
3096,,12.43
3097,,12.44
3098,,12.44
3099,,12.45
3100,,12.45
3101,,12.45
3102,,12.46
3103,,12.46
3104,,12.47
3105,,12.47
3106,,12.47
3107,,12.48
3108,,12.48
3109,,12.49
3110,,12.49
3111,,12.49
3112,,12.5
3113,,12.5
3114,,12.51
3115,,12.51
3116,,12.51
3117,,12.52
3118,,12.52
3119,,12.53
3120,,12.53
3121,,12.53
3122,,12.54
3123,,12.54
3124,,12.55
3125,,12.55
3126,,12.55
3127,,12.56
3128,,12.56
3129,,12.57
3130,,12.57
3131,,12.57
3132,,12.58
3133,,12.58
3134,,12.59
3135,,12.59
3136,,12.59
3137,,12.6
3138,,12.6
3139,,12.61
3140,,12.61
3141,,12.61
3142,,12.62
3143,,12.62
3144,,12.63
3145,,12.63
3146,,12.63
3147,,12.64
3148,,12.64
3149,,12.65
3150,,12.65
3151,,12.65
3152,,12.66
3153,,12.66
3154,,12.67
3155,,12.67
3156,,12.67
3157,,12.68
3158,,12.68
3159,,12.69
3160,,12.69
3161,,12.69
3162,,12.7
3163,,12.7
3164,,12.71
3165,,12.71
3166,,12.71
3167,,12.72
3168,,12.72
3169,,12.73
3170,,12.73
3171,,12.73
3172,,12.74
3173,,12.74
3174,,12.75
3175,,12.75
3176,,12.75
3177,,12.76
3178,,12.76
3179,,12.77
3180,,12.77
3181,,12.77
3182,,12.78
3183,,12.78
3184,,12.79
3185,,12.79
3186,,12.79
3187,,12.8
3188,,12.8
3189,,12.81
3190,,12.81
3191,,12.81
3192,,12.82
3193,,12.82
3194,,12.83
3195,,12.83
3196,,12.83
3197,,12.84
3198,,12.84
3199,,12.85
3200,,12.85
3201,,12.85
3202,,12.86
3203,,12.86
3204,,12.87
3205,,12.87
3206,,12.87
3207,,12.88
3208,,12.88
3209,,12.89
3210,,12.89
3211,,12.89
3212,,12.9
3213,,12.9
3214,,12.91
3215,,12.91
3216,,12.91
3217,,12.92
3218,,12.92
3219,,12.93
3220,,12.93
3221,,12.93
3222,,12.94
3223,,12.94
3224,,12.95
3225,,12.95
3226,,12.95
3227,,12.96
3228,,12.96
3229,,12.97
3230,,12.97
3231,,12.97
3232,,12.98
3233,,12.98
3234,,12.99
3235,,12.99
3236,,12.99
3237,,13.0
3238,,13.0
3239,,13.01
3240,,13.01
3241,,13.01
3242,,13.02
3243,,13.02
3244,,13.03
3245,,13.03
3246,,13.03
3247,,13.04
3248,,13.04
3249,,13.05
3250,,13.05
3251,,13.05
3252,,13.06
3253,,13.06
3254,,13.07
3255,,13.07
3256,,13.07
3257,,13.08
3258,,13.08
3259,,13.09
3260,,13.09
3261,,13.09
3262,,13.1
3263,,13.1
3264,,13.11
3265,,13.11
3266,,13.11
3267,,13.12
3268,,13.12
3269,,13.13
3270,,13.13
3271,,13.13
3272,,13.14
3273,,13.14
3274,,13.15
3275,,13.15
3276,,13.15
3277,,13.16
3278,,13.16
3279,,13.17
3280,,13.17
3281,,13.17
3282,,13.18
3283,,13.18
3284,,13.19
3285,,13.19
3286,,13.19
3287,,13.2
3288,,13.2
3289,,13.21
3290,,13.21
3291,,13.21
3292,,13.22
3293,,13.22
3294,,13.23
3295,,13.23
3296,,13.23
3297,,13.24
3298,,13.24
3299,,13.25
3300,,13.25
3301,,13.25
3302,,13.26
3303,,13.26
3304,,13.27
3305,,13.27
3306,,13.27
3307,,13.28
3308,,13.28
3309,,13.29
3310,,13.29
3311,,13.29
3312,,13.3
3313,,13.3
3314,,13.31
3315,,13.31
3316,,13.31
3317,,13.32
3318,,13.32
3319,,13.33
3320,,13.33
3321,,13.33
3322,,13.34
3323,,13.34
3324,,13.35
3325,,13.35
3326,,13.35
3327,,13.36
3328,,13.36
3329,,13.37
3330,,13.37
3331,,13.37
3332,,13.38
3333,,13.38
3334,,13.39
3335,,13.39
3336,,13.39
3337,,13.4
3338,,13.4
3339,,13.41
3340,,13.41
3341,,13.41
3342,,13.42
3343,,13.42
3344,,13.43
3345,,13.43
3346,,13.43
3347,,13.44
3348,,13.44
3349,,13.45
3350,,13.45
3351,,13.45
3352,,13.46
3353,,13.46
3354,,13.47
3355,,13.47
3356,,13.47
3357,,13.48
3358,,13.48
3359,,13.49
3360,,13.49
3361,,13.49
3362,,13.5
3363,,13.5
3364,,13.51
3365,,13.51
3366,,13.51
3367,,13.52
3368,,13.52
3369,,13.53
3370,,13.53
3371,,13.53
3372,,13.54
3373,,13.54
3374,,13.55
3375,,13.55
3376,,13.55
3377,,13.56
3378,,13.56
3379,,13.57
3380,,13.57
3381,,13.57
3382,,13.58
3383,,13.58
3384,,13.59
3385,,13.59
3386,,13.59
3387,,13.6
3388,,13.6
3389,,13.61
3390,,13.61
3391,,13.61
3392,,13.62
3393,,13.62
3394,,13.63
3395,,13.63
3396,,13.63
3397,,13.64
3398,,13.64
3399,,13.65
3400,,13.65
3401,,13.65
3402,,13.66
3403,,13.66
3404,,13.67
3405,,13.67
3406,,13.67
3407,,13.68
3408,,13.68
3409,,13.69
3410,,13.69
3411,,13.69
3412,,13.7
3413,,13.7
3414,,13.71
3415,,13.71
3416,,13.71
3417,,13.72
3418,,13.72
3419,,13.73
3420,,13.73
3421,,13.73
3422,,13.74
3423,,13.74
3424,,13.75
3425,,13.75
3426,,13.75
3427,,13.76
3428,,13.76
3429,,13.77
3430,,13.77
3431,,13.77
3432,,13.78
3433,,13.78
3434,,13.79
3435,,13.79
3436,,13.79
3437,,13.8
3438,,13.8
3439,,13.81
3440,,13.81
3441,,13.81
3442,,13.82
3443,,13.82
3444,,13.83
3445,,13.83
3446,,13.83
3447,,13.84
3448,,13.84
3449,,13.85
3450,,13.85
3451,,13.85
3452,,13.86
3453,,13.86
3454,,13.87
3455,,13.87
3456,,13.87
3457,,13.88
3458,,13.88
3459,,13.89
3460,,13.89
3461,,13.89
3462,,13.9
3463,,13.9
3464,,13.91
3465,,13.91
3466,,13.91
3467,,13.92
3468,,13.92
3469,,13.93
3470,,13.93
3471,,13.93
3472,,13.94
3473,,13.94
3474,,13.95
3475,,13.95
3476,,13.95
3477,,13.96
3478,,13.96
3479,,13.97
3480,,13.97
3481,,13.97
3482,,13.98
3483,,13.98
3484,,13.99
3485,,13.99
3486,,13.99
3487,,14.0
3488,,14.0
3489,,14.01
3490,,14.01
3491,,14.01
3492,,14.02
3493,,14.02
3494,,14.03
3495,,14.03
3496,,14.03
3497,,14.04
3498,,14.04
3499,,14.05
3500,,14.05
3501,,14.05
3502,,14.06
3503,,14.06
3504,,14.07
3505,,14.07
3506,,14.07
3507,,14.08
3508,,14.08
3509,,14.09
3510,,14.09
3511,,14.09
3512,,14.1
3513,,14.1
3514,,14.11
3515,,14.11
3516,,14.11
3517,,14.12
3518,,14.12
3519,,14.13
3520,,14.13
3521,,14.13
3522,,14.14
3523,,14.14
3524,,14.15
3525,,14.15
3526,,14.15
3527,,14.16
3528,,14.16
3529,,14.17
3530,,14.17
3531,,14.17
3532,,14.18
3533,,14.18
3534,,14.19
3535,,14.19
3536,,14.19
3537,,14.2
3538,,14.2
3539,,14.21
3540,,14.21
3541,,14.21
3542,,14.22
3543,,14.22
3544,,14.23
3545,,14.23
3546,,14.23
3547,,14.24
3548,,14.24
3549,,14.25
3550,,14.25
3551,,14.25
3552,,14.26
3553,,14.26
3554,,14.27
3555,,14.27
3556,,14.27
3557,,14.28
3558,,14.28
3559,,14.29
3560,,14.29
3561,,14.29
3562,,14.3
3563,,14.3
3564,,14.31
3565,,14.31
3566,,14.31
3567,,14.32
3568,,14.32
3569,,14.33
3570,,14.33
3571,,14.33
3572,,14.34
3573,,14.34
3574,,14.35
3575,,14.35
3576,,14.35
3577,,14.36
3578,,14.36
3579,,14.37
3580,,14.37
3581,,14.37
3582,,14.38
3583,,14.38
3584,,14.39
3585,,14.39
3586,,14.39
3587,,14.4
3588,,14.4
3589,,14.41
3590,,14.41
3591,,14.41
3592,,14.42
3593,,14.42
3594,,14.43
3595,,14.43
3596,,14.43
3597,,14.44
3598,,14.44
3599,,14.45
3600,,14.45
3601,,14.45
3602,,14.46
3603,,14.46
3604,,14.47
3605,,14.47
3606,,14.47
3607,,14.48
3608,,14.48
3609,,14.49
3610,,14.49
3611,,14.49
3612,,14.5
3613,,14.5
3614,,14.51
3615,,14.51
3616,,14.51
3617,,14.52
3618,,14.52
3619,,14.53
3620,,14.53
3621,,14.53
3622,,14.54
3623,,14.54
3624,,14.55
3625,,14.55
3626,,14.55
3627,,14.56
3628,,14.56
3629,,14.57
3630,,14.57
3631,,14.57
3632,,14.58
3633,,14.58
3634,,14.59
3635,,14.59
3636,,14.59
3637,,14.6
3638,,14.6
3639,,14.61
3640,,14.61
3641,,14.61
3642,,14.62
3643,,14.62
3644,,14.63
3645,,14.63
3646,,14.63
3647,,14.64
3648,,14.64
3649,,14.65
3650,,14.65
3651,,14.65
3652,,14.66
3653,,14.66
3654,,14.67
3655,,14.67
3656,,14.67
3657,,14.68
3658,,14.68
3659,,14.69
3660,,14.69
3661,,14.69
3662,,14.7
3663,,14.7
3664,,14.71
3665,,14.71
3666,,14.71
3667,,14.72
3668,,14.72
3669,,14.73
3670,,14.73
3671,,14.73
3672,,14.74
3673,,14.74
3674,,14.75
3675,,14.75
3676,,14.75
3677,,14.76
3678,,14.76
3679,,14.77
3680,,14.77
3681,,14.77
3682,,14.78
3683,,14.78
3684,,14.79
3685,,14.79
3686,,14.79
3687,,14.8
3688,,14.8
3689,,14.81
3690,,14.81
3691,,14.81
3692,,14.82
3693,,14.82
3694,,14.83
3695,,14.83
3696,,14.83
3697,,14.84
3698,,14.84
3699,,14.85
3700,,14.85
3701,,14.85
3702,,14.86
3703,,14.86
3704,,14.87
3705,,14.87
3706,,14.87
3707,,14.88
3708,,14.88
3709,,14.89
3710,,14.89
3711,,14.89
3712,,14.9
3713,,14.9
3714,,14.91
3715,,14.91
3716,,14.91
3717,,14.92
3718,,14.92
3719,,14.93
3720,,14.93
3721,,14.93
3722,,14.94
3723,,14.94
3724,,14.95
3725,,14.95
3726,,14.95
3727,,14.96
3728,,14.96
3729,,14.97
3730,,14.97
3731,,14.97
3732,,14.98
3733,,14.98
3734,,14.99
3735,,14.99
3736,,14.99
3737,,15.0
3738,,15.0
3739,,15.01
3740,,15.01
3741,,15.01
3742,,15.02
3743,,15.02
3744,,15.03
3745,,15.03
3746,,15.03
3747,,15.04
3748,,15.04
3749,,15.05
3750,,15.05
3751,,15.05
3752,,15.06
3753,,15.06
3754,,15.07
3755,,15.07
3756,,15.07
3757,,15.08
3758,,15.08
3759,,15.09
3760,,15.09
3761,,15.09
3762,,15.1
3763,,15.1
3764,,15.11
3765,,15.11
3766,,15.11
3767,,15.12
3768,,15.12
3769,,15.13
3770,,15.13
3771,,15.13
3772,,15.14
3773,,15.14
3774,,15.15
3775,,15.15
3776,,15.15
3777,,15.16
3778,,15.16
3779,,15.17
3780,,15.17
3781,,15.17
3782,,15.18
3783,,15.18
3784,,15.19
3785,,15.19
3786,,15.19
3787,,15.2
3788,,15.2
3789,,15.21
3790,,15.21
3791,,15.21
3792,,15.22
3793,,15.22
3794,,15.23
3795,,15.23
3796,,15.23
3797,,15.24
3798,,15.24
3799,,15.25
3800,,15.25
3801,,15.25
3802,,15.26
3803,,15.26
3804,,15.27
3805,,15.27
3806,,15.27
3807,,15.28
3808,,15.28
3809,,15.29
3810,,15.29
3811,,15.29
3812,,15.3
3813,,15.3
3814,,15.31
3815,,15.31
3816,,15.31
3817,,15.32
3818,,15.32
3819,,15.33
3820,,15.33
3821,,15.33
3822,,15.34
3823,,15.34
3824,,15.35
3825,,15.35
3826,,15.35
3827,,15.36
3828,,15.36
3829,,15.37
3830,,15.37
3831,,15.37
3832,,15.38
3833,,15.38
3834,,15.39
3835,,15.39
3836,,15.39
3837,,15.4
3838,,15.4
3839,,15.41
3840,,15.41
3841,,15.41
3842,,15.42
3843,,15.42
3844,,15.43
3845,,15.43
3846,,15.43
3847,,15.44
3848,,15.44
3849,,15.45
3850,,15.45
3851,,15.45
3852,,15.46
3853,,15.46
3854,,15.47
3855,,15.47
3856,,15.47
3857,,15.48
3858,,15.48
3859,,15.49
3860,,15.49
3861,,15.49
3862,,15.5
3863,,15.5
3864,,15.51
3865,,15.51
3866,,15.51
3867,,15.52
3868,,15.52
3869,,15.53
3870,,15.53
3871,,15.53
3872,,15.54
3873,,15.54
3874,,15.55
3875,,15.55
3876,,15.55
3877,,15.56
3878,,15.56
3879,,15.57
3880,,15.57
3881,,15.57
3882,,15.58
3883,,15.58
3884,,15.59
3885,,15.59
3886,,15.59
3887,,15.6
3888,,15.6
3889,,15.61
3890,,15.61
3891,,15.61
3892,,15.62
3893,,15.62
3894,,15.63
3895,,15.63
3896,,15.63
3897,,15.64
3898,,15.64
3899,,15.65
3900,,15.65
3901,,15.65
3902,,15.66
3903,,15.66
3904,,15.67
3905,,15.67
3906,,15.67
3907,,15.68
3908,,15.68
3909,,15.69
3910,,15.69
3911,,15.69
3912,,15.7
3913,,15.7
3914,,15.71
3915,,15.71
3916,,15.71
3917,,15.72
3918,,15.72
3919,,15.73
3920,,15.73
3921,,15.73
3922,,15.74
3923,,15.74
3924,,15.75
3925,,15.75
3926,,15.75
3927,,15.76
3928,,15.76
3929,,15.77
3930,,15.77
3931,,15.77
3932,,15.78
3933,,15.78
3934,,15.79
3935,,15.79
3936,,15.79
3937,,15.8
3938,,15.8
3939,,15.81
3940,,15.81
3941,,15.81
3942,,15.82
3943,,15.82
3944,,15.83
3945,,15.83
3946,,15.83
3947,,15.84
3948,,15.84
3949,,15.85
3950,,15.85
3951,,15.85
3952,,15.86
3953,,15.86
3954,,15.87
3955,,15.87
3956,,15.87
3957,,15.88
3958,,15.88
3959,,15.89
3960,,15.89
3961,,15.89
3962,,15.9
3963,,15.9
3964,,15.91
3965,,15.91
3966,,15.91
3967,,15.92
3968,,15.92
3969,,15.93
3970,,15.93
3971,,15.93
3972,,15.94
3973,,15.94
3974,,15.95
3975,,15.95
3976,,15.95
3977,,15.96
3978,,15.96
3979,,15.97
3980,,15.97
3981,,15.97
3982,,15.98
3983,,15.98
3984,,15.99
3985,,15.99
3986,,15.99
3987,,16.0
3988,,16.0
3989,,16.01
3990,,16.01
3991,,16.01
3992,,16.02
3993,,16.02
3994,,16.03
3995,,16.03
3996,,16.03
3997,,16.04
3998,,16.04
3999,,16.05
4000,,16.05
4001,,16.05
4002,,16.06
4003,,16.06
4004,,16.07
4005,,16.07
4006,,16.07
4007,,16.08
4008,,16.08
4009,,16.09
4010,,16.09
4011,,16.09
4012,,16.1
4013,,16.1
4014,,16.11
4015,,16.11
4016,,16.11
4017,,16.12
4018,,16.12
4019,,16.13
4020,,16.13
4021,,16.13
4022,,16.14
4023,,16.14
4024,,16.15
4025,,16.15
4026,,16.15
4027,,16.16
4028,,16.16
4029,,16.17
4030,,16.17
4031,,16.17
4032,,16.18
4033,,16.18
4034,,16.19
4035,,16.19
4036,,16.19
4037,,16.2
4038,,16.2
4039,,16.21
4040,,16.21
4041,,16.21
4042,,16.22
4043,,16.22
4044,,16.23
4045,,16.23
4046,,16.23
4047,,16.24
4048,,16.24
4049,,16.25
4050,,16.25
4051,,16.25
4052,,16.26
4053,,16.26
4054,,16.27
4055,,16.27
4056,,16.27
4057,,16.28
4058,,16.28
4059,,16.29
4060,,16.29
4061,,16.29
4062,,16.3
4063,,16.3
4064,,16.31
4065,,16.31
4066,,16.31
4067,,16.32
4068,,16.32
4069,,16.33
4070,,16.33
4071,,16.33
4072,,16.34
4073,,16.34
4074,,16.35
4075,,16.35
4076,,16.35
4077,,16.36
4078,,16.36
4079,,16.37
4080,,16.37
4081,,16.37
4082,,16.38
4083,,16.38
4084,,16.39
4085,,16.39
4086,,16.39
4087,,16.4
4088,,16.4
4089,,16.41
4090,,16.41
4091,,16.41
4092,,16.42
4093,,16.42
4094,,16.43
4095,,16.43
4096,,16.43
4097,,16.44
4098,,16.44
4099,,16.45
4100,,16.45
4101,,16.45
4102,,16.46
4103,,16.46
4104,,16.47
4105,,16.47
4106,,16.47
4107,,16.48
4108,,16.48
4109,,16.49
4110,,16.49
4111,,16.49
4112,,16.5
4113,,16.5
4114,,16.51
4115,,16.51
4116,,16.51
4117,,16.52
4118,,16.52
4119,,16.53
4120,,16.53
4121,,16.53
4122,,16.54
4123,,16.54
4124,,16.55
4125,,16.55
4126,,16.55
4127,,16.56
4128,,16.56
4129,,16.57
4130,,16.57
4131,,16.57
4132,,16.58
4133,,16.58
4134,,16.59
4135,,16.59
4136,,16.59
4137,,16.6
4138,,16.6
4139,,16.61
4140,,16.61
4141,,16.61
4142,,16.62
4143,,16.62
4144,,16.63
4145,,16.63
4146,,16.63
4147,,16.64
4148,,16.64
4149,,16.65
4150,,16.65
4151,,16.65
4152,,16.66
4153,,16.66
4154,,16.67
4155,,16.67
4156,,16.67
4157,,16.68
4158,,16.65
4159,,0.0
4160,,0.02
4161,,0.03
4162,,0.03
4163,,0.03
4164,,0.04
4165,,0.04
4166,,0.05
4167,,0.05
4168,,0.05
4169,,0.06
4170,,0.06
4171,,0.07
4172,,0.07
4173,,0.07
4174,,0.08
4175,,0.08
4176,,0.09
4177,,0.09
4178,,0.09
4179,,0.1
4180,,0.1
4181,,0.11
4182,,0.11
4183,,0.11
4184,,0.12
4185,,0.12
4186,,0.13
4187,,0.13
4188,,0.13
4189,,0.14
4190,,0.14
4191,,0.15
4192,,0.15
4193,,0.15
4194,,0.16
4195,,0.16
4196,,0.17
4197,,0.17
4198,,0.17
4199,,0.18
4200,,0.18
4201,,0.19
4202,,0.19
4203,,0.19
4204,,0.2
4205,,0.2
4206,,0.21
4207,,0.21
4208,,0.21
4209,,0.22
4210,,0.22
4211,,0.23
4212,,0.23
4213,,0.23
4214,,0.24
4215,,0.24
4216,,0.25
4217,,0.25
4218,,0.25
4219,,0.26
4220,,0.26
4221,,0.27
4222,,0.27
4223,,0.27
4224,,0.28
4225,,0.28
4226,,0.29
4227,,0.29
4228,,0.29
4229,,0.3
4230,,0.3
4231,,0.31
4232,,0.31
4233,,0.31
4234,,0.32
4235,,0.32
4236,,0.33
4237,,0.33
4238,,0.33
4239,,0.34
4240,,0.34
4241,,0.35
4242,,0.35
4243,,0.35
4244,,0.36
4245,,0.36
4246,,0.37
4247,,0.37
4248,,0.37
4249,,0.38
4250,,0.38
4251,,0.39
4252,,0.39
4253,,0.39
4254,,0.4
4255,,0.4
4256,,0.41
4257,,0.41
4258,,0.41
4259,,0.42
4260,,0.42
4261,,0.43
4262,,0.43
4263,,0.43
4264,,0.44
4265,,0.44
4266,,0.45
4267,,0.45
4268,,0.45
4269,,0.46
4270,,0.46
4271,,0.47
4272,,0.47
4273,,0.47
4274,,0.48
4275,,0.48
4276,,0.49
4277,,0.49
4278,,0.49
4279,,0.5
4280,,0.5
4281,,0.51
4282,,0.51
4283,,0.51
4284,,0.52
4285,,0.52
4286,,0.52
4287,,0.53
4288,,0.53
4289,,0.54
4290,,0.54
4291,,0.54
4292,,0.55
4293,,0.55
4294,,0.56
4295,,0.56
4296,,0.56
4297,,0.57
4298,,0.57
4299,,0.58
4300,,0.58
4301,,0.58
4302,,0.59
4303,,0.59
4304,,0.6
4305,,0.6
4306,,0.6
4307,,0.61
4308,,0.61
4309,,0.62
4310,,0.62
4311,,0.62
4312,,0.63
4313,,0.63
4314,,0.64
4315,,0.64
4316,,0.64
4317,,0.65
4318,,0.65
4319,,0.66
4320,,0.66
4321,,0.66
4322,,0.67
4323,,0.67
4324,,0.68
4325,,0.68
4326,,0.68
4327,,0.69
4328,,0.69
4329,,0.7
4330,,0.7
4331,,0.7
4332,,0.71
4333,,0.71
4334,,0.72
4335,,0.72
4336,,0.72
4337,,0.73
4338,,0.73
4339,,0.74
4340,,0.74
4341,,0.74
4342,,0.75
4343,,0.75
4344,,0.76
4345,,0.76
4346,,0.76
4347,,0.77
4348,,0.77
4349,,0.78
4350,,0.78
4351,,0.78
4352,,0.79
4353,,0.79
4354,,0.8
4355,,0.8
4356,,0.8
4357,,0.81
4358,,0.81
4359,,0.82
4360,,0.82
4361,,0.82
4362,,0.83
4363,,0.83
4364,,0.84
4365,,0.84
4366,,0.84
4367,,0.85
4368,,0.85
4369,,0.86
4370,,0.86
4371,,0.86
4372,,0.87
4373,,0.87
4374,,0.88
4375,,0.88
4376,,0.88
4377,,0.89
4378,,0.89
4379,,0.9
4380,,0.9
4381,,0.9
4382,,0.91
4383,,0.91
4384,,0.92
4385,,0.92
4386,,0.92
4387,,0.93
4388,,0.93
4389,,0.94
4390,,0.94
4391,,0.94
4392,,0.95
4393,,0.95
4394,,0.96
4395,,0.96
4396,,0.96
4397,,0.97
4398,,0.97
4399,,0.98
4400,,0.98
4401,,0.98
4402,,0.99
4403,,0.99
4404,,1.0
4405,,1.0
4406,,1.0
4407,,1.01
4408,,1.01
4409,,1.02
4410,,1.02
4411,,1.02
4412,,1.03
4413,,1.03
4414,,1.04
4415,,1.04
4416,,1.04
4417,,1.05
4418,,1.05
4419,,1.06
4420,,1.06
4421,,1.06
4422,,1.07
4423,,1.07
4424,,1.08
4425,,1.08
4426,,1.08
4427,,1.09
4428,,1.09
4429,,1.1
4430,,1.1
4431,,1.1
4432,,1.11
4433,,1.11
4434,,1.12
4435,,1.12
4436,,1.12
4437,,1.13
4438,,1.13
4439,,1.14
4440,,1.14
4441,,1.14
4442,,1.15
4443,,1.15
4444,,1.16
4445,,1.16
4446,,1.16
4447,,1.17
4448,,1.17
4449,,1.18
4450,,1.18
4451,,1.18
4452,,1.19
4453,,1.19
4454,,1.2
4455,,1.2
4456,,1.2
4457,,1.21
4458,,1.21
4459,,1.22
4460,,1.22
4461,,1.22
4462,,1.23
4463,,1.23
4464,,1.24
4465,,1.24
4466,,1.24
4467,,1.25
4468,,1.25
4469,,1.26
4470,,1.26
4471,,1.26
4472,,1.27
4473,,1.27
4474,,1.28
4475,,1.28
4476,,1.28
4477,,1.29
4478,,1.29
4479,,1.3
4480,,1.3
4481,,1.3
4482,,1.31
4483,,1.31
4484,,1.32
4485,,1.32
4486,,1.32
4487,,1.33
4488,,1.33
4489,,1.34
4490,,1.34
4491,,1.34
4492,,1.35
4493,,1.35
4494,,1.36
4495,,1.36
4496,,1.36
4497,,1.37
4498,,1.37
4499,,1.38
4500,,1.38
4501,,1.38
4502,,1.39
4503,,1.39
4504,,1.4
4505,,1.4
4506,,1.4
4507,,1.41
4508,,1.41
4509,,1.42
4510,,1.42
4511,,1.42
4512,,1.43
4513,,1.43
4514,,1.44
4515,,1.44
4516,,1.44
4517,,1.45
4518,,1.45
4519,,1.46
4520,,1.46
4521,,1.46
4522,,1.47
4523,,1.47
4524,,1.48
4525,,1.48
4526,,1.48
4527,,1.49
4528,,1.49
4529,,1.5
4530,,1.5
4531,,1.5
4532,,1.51
4533,,1.51
4534,,1.52
4535,,1.52
4536,,1.52
4537,,1.53
4538,,1.54
4539,,1.54
4540,,1.55
4541,,1.55
4542,,1.55
4543,,1.56
4544,,1.56
4545,,1.57
4546,,1.57
4547,,1.57
4548,,1.58
4549,,1.58
4550,,1.59
4551,,1.59
4552,,1.59
4553,,1.6
4554,,1.6
4555,,1.61
4556,,1.61
4557,,1.61
4558,,1.62
4559,,1.62
4560,,1.63
4561,,1.63
4562,,1.63
4563,,1.64
4564,,1.64
4565,,1.65
4566,,1.65
4567,,1.65
4568,,1.66
4569,,1.66
4570,,1.67
4571,,1.67
4572,,1.67
4573,,1.68
4574,,1.68
4575,,1.69
4576,,1.69
4577,,1.69
4578,,1.7
4579,,1.7
4580,,1.71
4581,,1.71
4582,,1.71
4583,,1.72
4584,,1.72
4585,,1.73
4586,,1.73
4587,,1.73
4588,,1.74
4589,,1.74
4590,,1.75
4591,,1.75
4592,,1.75
4593,,1.76
4594,,1.76
4595,,1.77
4596,,1.77
4597,,1.77
4598,,1.78
4599,,1.78
4600,,1.79
4601,,1.79
4602,,1.79
4603,,1.8
4604,,1.8
4605,,1.81
4606,,1.81
4607,,1.81
4608,,1.82
4609,,1.82
4610,,1.83
4611,,1.83
4612,,1.83
4613,,1.84
4614,,1.84
4615,,1.85
4616,,1.85
4617,,1.85
4618,,1.86
4619,,1.86
4620,,1.87
4621,,1.87
4622,,1.87
4623,,1.88
4624,,1.88
4625,,1.89
4626,,1.89
4627,,1.89
4628,,1.9
4629,,1.9
4630,,1.91
4631,,1.91
4632,,1.91
4633,,1.92
4634,,1.92
4635,,1.93
4636,,1.93
4637,,1.93
4638,,1.94
4639,,1.94
4640,,1.95
4641,,1.95
4642,,1.95
4643,,1.96
4644,,1.96
4645,,1.97
4646,,1.97
4647,,1.97
4648,,1.98
4649,,1.98
4650,,1.99
4651,,1.99
4652,,1.99
4653,,2.0
4654,,2.0
4655,,2.01
4656,,2.01
4657,,2.01
4658,,2.02
4659,,2.02
4660,,2.03
4661,,2.03
4662,,2.03
4663,,2.04
4664,,2.04
4665,,2.05
4666,,2.05
4667,,2.05
4668,,2.06
4669,,2.06
4670,,2.07
4671,,2.07
4672,,2.07
4673,,2.08
4674,,2.08
4675,,2.09
4676,,2.09
4677,,2.09
4678,,2.1
4679,,2.1
4680,,2.11
4681,,2.11
4682,,2.11
4683,,2.12
4684,,2.12
4685,,2.13
4686,,2.13
4687,,2.13
4688,,2.14
4689,,2.14
4690,,2.15
4691,,2.15
4692,,2.15
4693,,2.16
4694,,2.16
4695,,2.17
4696,,2.17
4697,,2.17
4698,,2.18
4699,,2.18
4700,,2.19
4701,,2.19
4702,,2.19
4703,,2.2
4704,,2.2
4705,,2.21
4706,,2.21
4707,,2.21
4708,,2.22
4709,,2.22
4710,,2.23
4711,,2.23
4712,,2.23
4713,,2.24
4714,,2.24
4715,,2.25
4716,,2.25
4717,,2.25
4718,,2.26
4719,,2.26
4720,,2.27
4721,,2.27
4722,,2.27
4723,,2.28
4724,,2.28
4725,,2.29
4726,,2.29
4727,,2.29
4728,,2.3
4729,,2.3
4730,,2.31
4731,,2.31
4732,,2.31
4733,,2.32
4734,,2.32
4735,,2.33
4736,,2.33
4737,,2.33
4738,,2.34
4739,,2.34
4740,,2.35
4741,,2.35
4742,,2.35
4743,,2.36
4744,,2.36
4745,,2.37
4746,,2.37
4747,,2.37
4748,,2.38
4749,,2.38
4750,,2.39
4751,,2.39
4752,,2.39
4753,,2.4
4754,,2.4
4755,,2.41
4756,,2.41
4757,,2.41
4758,,2.42
4759,,2.42
4760,,2.43
4761,,2.43
4762,,2.43
4763,,2.44
4764,,2.44
4765,,2.45
4766,,2.45
4767,,2.45
4768,,2.46
4769,,2.46
4770,,2.47
4771,,2.47
4772,,2.47
4773,,2.48
4774,,2.48
4775,,2.49
4776,,2.49
4777,,2.49
4778,,2.5
4779,,2.5
4780,,2.51
4781,,2.51
4782,,2.51
4783,,2.52
4784,,2.52
4785,,2.53
4786,,2.53
4787,,2.53
4788,,2.54
4789,,2.54
4790,,2.55
4791,,2.55
4792,,2.55
4793,,2.56
4794,,2.56
4795,,2.57
4796,,2.57
4797,,2.57
4798,,2.58
4799,,2.58
4800,,2.59
4801,,2.59
4802,,2.59
4803,,2.6
4804,,2.6
4805,,2.61
4806,,2.61
4807,,2.61
4808,,2.62
4809,,2.62
4810,,2.63
4811,,2.63
4812,,2.63
4813,,2.64
4814,,2.64
4815,,2.65
4816,,2.65
4817,,2.65
4818,,2.66
4819,,2.66
4820,,2.67
4821,,2.67
4822,,2.67
4823,,2.68
4824,,2.68
4825,,2.69
4826,,2.69
4827,,2.69
4828,,2.7
4829,,2.7
4830,,2.71
4831,,2.71
4832,,2.71
4833,,2.72
4834,,2.72
4835,,2.73
4836,,2.73
4837,,2.73
4838,,2.74
4839,,2.74
4840,,2.75
4841,,2.75
4842,,2.75
4843,,2.76
4844,,2.76
4845,,2.77
4846,,2.77
4847,,2.77
4848,,2.78
4849,,2.78
4850,,2.79
4851,,2.79
4852,,2.79
4853,,2.8
4854,,2.8
4855,,2.81
4856,,2.81
4857,,2.81
4858,,2.82
4859,,2.82
4860,,2.83
4861,,2.83
4862,,2.83
4863,,2.84
4864,,2.84
4865,,2.85
4866,,2.85
4867,,2.85
4868,,2.86
4869,,2.86
4870,,2.87
4871,,2.87
4872,,2.87
4873,,2.88
4874,,2.88
4875,,2.89
4876,,2.89
4877,,2.89
4878,,2.9
4879,,2.9
4880,,2.91
4881,,2.91
4882,,2.91
4883,,2.92
4884,,2.92
4885,,2.93
4886,,2.93
4887,,2.93
4888,,2.94
4889,,2.94
4890,,2.95
4891,,2.95
4892,,2.95
4893,,2.96
4894,,2.96
4895,,2.97
4896,,2.97
4897,,2.97
4898,,2.98
4899,,2.98
4900,,2.99
4901,,2.99
4902,,2.99
4903,,3.0
4904,,3.0
4905,,3.01
4906,,3.01
4907,,3.01
4908,,3.02
4909,,3.02
4910,,3.03
4911,,3.03
4912,,3.03
4913,,3.04
4914,,3.04
4915,,3.05
4916,,3.05
4917,,3.05
4918,,3.06
4919,,3.06
4920,,3.07
4921,,3.07
4922,,3.07
4923,,3.08
4924,,3.08
4925,,3.09
4926,,3.09
4927,,3.09
4928,,3.1
4929,,3.1
4930,,3.11
4931,,3.11
4932,,3.11
4933,,3.12
4934,,3.12
4935,,3.13
4936,,3.13
4937,,3.13
4938,,3.14
4939,,3.14
4940,,3.15
4941,,3.15
4942,,3.15
4943,,3.16
4944,,3.16
4945,,3.17
4946,,3.17
4947,,3.17
4948,,3.18
4949,,3.18
4950,,3.19
4951,,3.19
4952,,3.19
4953,,3.2
4954,,3.2
4955,,3.21
4956,,3.21
4957,,3.21
4958,,3.22
4959,,3.22
4960,,3.23
4961,,3.23
4962,,3.23
4963,,3.24
4964,,3.24
4965,,3.25
4966,,3.25
4967,,3.25
4968,,3.26
4969,,3.26
4970,,3.27
4971,,3.27
4972,,3.27
4973,,3.28
4974,,3.28
4975,,3.29
4976,,3.29
4977,,3.29
4978,,3.3
4979,,3.3
4980,,3.3
4981,,3.3
4982,,3.31
4983,,3.31
4984,,3.32
4985,,3.32
4986,,3.33
4987,,3.33
4988,,3.33
4989,,3.34
4990,,3.34
4991,,3.35
4992,,3.35
4993,,3.35
4994,,3.36
4995,,3.36
4996,,3.37
4997,,3.37
4998,,3.37
4999,,3.38
5000,,3.38
5001,,3.39
5002,,3.39
5003,,3.39
5004,,3.4
5005,,3.4
5006,,3.41
5007,,3.41
5008,,3.41
5009,,3.42
5010,,3.42
5011,,3.43
5012,,3.43
5013,,3.43
5014,,3.44
5015,,3.44
5016,,3.45
5017,,3.45
5018,,3.45
5019,,3.46
5020,,3.46
5021,,3.47
5022,,3.47
5023,,3.47
5024,,3.48
5025,,3.48
5026,,3.49
5027,,3.49
5028,,3.49
5029,,3.5
5030,,3.5
5031,,3.51
5032,,3.51
5033,,3.51
5034,,3.52
5035,,3.52
5036,,3.53
5037,,3.53
5038,,3.53
5039,,3.54
5040,,3.54
5041,,3.55
5042,,3.55
5043,,3.55
5044,,3.56
5045,,3.56
5046,,3.57
5047,,3.57
5048,,3.57
5049,,3.58
5050,,3.58
5051,,3.59
5052,,3.59
5053,,3.59
5054,,3.6
5055,,3.6
5056,,3.61
5057,,3.61
5058,,3.61
5059,,3.62
5060,,3.62
5061,,3.63
5062,,3.63
5063,,3.63
5064,,3.64
5065,,3.64
5066,,3.65
5067,,3.65
5068,,3.65
5069,,3.66
5070,,3.66
5071,,3.67
5072,,3.67
5073,,3.67
5074,,3.68
5075,,3.68
5076,,3.69
5077,,3.69
5078,,3.69
5079,,3.7
5080,,3.7
5081,,3.71
5082,,3.71
5083,,3.71
5084,,3.72
5085,,3.72
5086,,3.73
5087,,3.73
5088,,3.73
5089,,3.74
5090,,3.74
5091,,3.75
5092,,3.75
5093,,3.75
5094,,3.76
5095,,3.76
5096,,3.77
5097,,3.77
5098,,3.77
5099,,3.78
5100,,3.78
5101,,3.79
5102,,3.79
5103,,3.79
5104,,3.8
5105,,3.8
5106,,3.8
5107,,3.81
5108,,3.81
5109,,3.82
5110,,3.82
5111,,3.83
5112,,3.83
5113,,3.83
5114,,3.84
5115,,3.84
5116,,3.85
5117,,3.85
5118,,3.85
5119,,3.86
5120,,3.86
5121,,3.87
5122,,3.87
5123,,3.87
5124,,3.88
5125,,3.88
5126,,3.89
5127,,3.89
5128,,3.89
5129,,3.9
5130,,3.9
5131,,3.91
5132,,3.91
5133,,3.91
5134,,3.92
5135,,3.92
5136,,3.93
5137,,3.93
5138,,3.93
5139,,3.94
5140,,3.94
5141,,3.95
5142,,3.95
5143,,3.95
5144,,3.96
5145,,3.96
5146,,3.97
5147,,3.97
5148,,3.97
5149,,3.98
5150,,3.98
5151,,3.99
5152,,3.99
5153,,3.99
5154,,4.0
5155,,4.0
5156,,4.01
5157,,4.01
5158,,4.01
5159,,4.02
5160,,4.02
5161,,4.03
5162,,4.03
5163,,4.03
5164,,4.04
5165,,4.04
5166,,4.05
5167,,4.05
5168,,4.05
5169,,4.06
5170,,4.06
5171,,4.07
5172,,4.07
5173,,4.07
5174,,4.08
5175,,4.08
5176,,4.09
5177,,4.09
5178,,4.09
5179,,4.1
5180,,4.1
5181,,4.11
5182,,4.11
5183,,4.11
5184,,4.12
5185,,4.12
5186,,4.13
5187,,4.13
5188,,4.13
5189,,4.14
5190,,4.14
5191,,4.15
5192,,4.15
5193,,4.15
5194,,4.16
5195,,4.16
5196,,4.17
5197,,4.17
5198,,4.17
5199,,4.18
5200,,4.18
5201,,4.19
5202,,4.19
5203,,4.19
5204,,4.2
5205,,4.2
5206,,4.21
5207,,4.21
5208,,4.21
5209,,4.22
5210,,4.22
5211,,4.23
5212,,4.23
5213,,4.23
5214,,4.24
5215,,4.24
5216,,4.25
5217,,4.25
5218,,4.25
5219,,4.26
5220,,4.26
5221,,4.27
5222,,4.27
5223,,4.27
5224,,4.28
5225,,4.28
5226,,4.29
5227,,4.29
5228,,4.29
5229,,4.3
5230,,4.3
5231,,4.31
5232,,4.31
5233,,4.32
5234,,4.32
5235,,4.33
5236,,4.33
5237,,4.33
5238,,4.34
5239,,4.34
5240,,4.35
5241,,4.35
5242,,4.35
5243,,4.36
5244,,4.36
5245,,4.37
5246,,4.37
5247,,4.37
5248,,4.38
5249,,4.38
5250,,4.39
5251,,4.39
5252,,4.39
5253,,4.4
5254,,4.4
5255,,4.41
5256,,4.41
5257,,4.41
5258,,4.42
5259,,4.42
5260,,4.43
5261,,4.43
5262,,4.43
5263,,4.44
5264,,4.44
5265,,4.45
5266,,4.45
5267,,4.45
5268,,4.46
5269,,4.46
5270,,4.47
5271,,4.47
5272,,4.47
5273,,4.48
5274,,4.48
5275,,4.49
5276,,4.49
5277,,4.49
5278,,4.5
5279,,4.5
5280,,4.51
5281,,4.51
5282,,4.51
5283,,4.52
5284,,4.52
5285,,4.53
5286,,4.53
5287,,4.53
5288,,4.54
5289,,4.54
5290,,4.55
5291,,4.55
5292,,4.55
5293,,4.56
5294,,4.56
5295,,4.57
5296,,4.57
5297,,4.57
5298,,4.58
5299,,4.58
5300,,4.59
5301,,4.59
5302,,4.59
5303,,4.6
5304,,4.6
5305,,4.61
5306,,4.61
5307,,4.61
5308,,4.62
5309,,4.62
5310,,4.63
5311,,4.63
5312,,4.63
5313,,4.64
5314,,4.64
5315,,4.65
5316,,4.65
5317,,4.65
5318,,4.66
5319,,4.66
5320,,4.67
5321,,4.67
5322,,4.67
5323,,4.68
5324,,4.68
5325,,4.69
5326,,4.69
5327,,4.69
5328,,4.7
5329,,4.7
5330,,4.71
5331,,4.71
5332,,4.71
5333,,4.72
5334,,4.72
5335,,4.73
5336,,4.73
5337,,4.73
5338,,4.74
5339,,4.74
5340,,4.75
5341,,4.75
5342,,4.75
5343,,4.76
5344,,4.76
5345,,4.77
5346,,4.77
5347,,4.77
5348,,4.78
5349,,4.78
5350,,4.79
5351,,4.79
5352,,4.79
5353,,4.8
5354,,4.8
5355,,4.81
5356,,4.81
5357,,4.81
5358,,4.82
5359,,4.82
5360,,4.83
5361,,4.83
5362,,4.83
5363,,4.84
5364,,4.84
5365,,4.85
5366,,4.85
5367,,4.85
5368,,4.86
5369,,4.86
5370,,4.87
5371,,4.87
5372,,4.87
5373,,4.88
5374,,4.88
5375,,4.89
5376,,4.89
5377,,4.89
5378,,4.9
5379,,4.9
5380,,4.91
5381,,4.91
5382,,4.91
5383,,4.92
5384,,4.92
5385,,4.93
5386,,4.93
5387,,4.93
5388,,4.94
5389,,4.94
5390,,4.95
5391,,4.95
5392,,4.95
5393,,4.96
5394,,4.96
5395,,4.97
5396,,4.97
5397,,4.97
5398,,4.98
5399,,4.98
5400,,4.99
5401,,4.99
5402,,4.99
5403,,5.0
5404,,5.0
5405,,5.01
5406,,5.01
5407,,5.01
5408,,5.02
5409,,5.02
5410,,5.03
5411,,5.03
5412,,5.03
5413,,5.04
5414,,5.04
5415,,5.05
5416,,5.05
5417,,5.05
5418,,5.06
5419,,5.06
5420,,5.07
5421,,5.07
5422,,5.07
5423,,5.08
5424,,5.08
5425,,5.09
5426,,5.09
5427,,5.09
5428,,5.1
5429,,5.1
5430,,5.11
5431,,5.11
5432,,5.11
5433,,5.12
5434,,5.12
5435,,5.13
5436,,5.13
5437,,5.13
5438,,5.14
5439,,5.14
5440,,5.15
5441,,5.15
5442,,5.15
5443,,5.16
5444,,5.16
5445,,5.17
5446,,5.17
5447,,5.17
5448,,5.18
5449,,5.18
5450,,5.19
5451,,5.19
5452,,5.19
5453,,5.2
5454,,5.2
5455,,5.21
5456,,5.21
5457,,5.21
5458,,5.22
5459,,5.22
5460,,5.23
5461,,5.23
5462,,5.23
5463,,5.24
5464,,5.24
5465,,5.25
5466,,5.25
5467,,5.25
5468,,5.26
5469,,5.26
5470,,5.27
5471,,5.27
5472,,5.27
5473,,5.28
5474,,5.28
5475,,5.29
5476,,5.29
5477,,5.29
5478,,5.3
5479,,5.3
5480,,5.31
5481,,5.31
5482,,5.31
5483,,5.32
5484,,5.32
5485,,5.33
5486,,5.33
5487,,5.33
5488,,5.34
5489,,5.34
5490,,5.35
5491,,5.35
5492,,5.35
5493,,5.36
5494,,5.36
5495,,5.37
5496,,5.37
5497,,5.37
5498,,5.38
5499,,5.38
5500,,5.39
5501,,5.39
5502,,5.39
5503,,5.4
5504,,5.4
5505,,5.41
5506,,5.41
5507,,5.41
5508,,5.42
5509,,5.42
5510,,5.43
5511,,5.43
5512,,5.43
5513,,5.44
5514,,5.44
5515,,5.45
5516,,5.45
5517,,5.45
5518,,5.46
5519,,5.46
5520,,5.47
5521,,5.47
5522,,5.47
5523,,5.48
5524,,5.48
5525,,5.49
5526,,5.49
5527,,5.49
5528,,5.5
5529,,5.5
5530,,5.51
5531,,5.51
5532,,5.51
5533,,5.52
5534,,5.52
5535,,5.53
5536,,5.53
5537,,5.53
5538,,5.54
5539,,5.54
5540,,5.55
5541,,5.55
5542,,5.55
5543,,5.56
5544,,5.56
5545,,5.57
5546,,5.57
5547,,5.57
5548,,5.58
5549,,5.58
5550,,5.59
5551,,5.59
5552,,5.59
5553,,5.6
5554,,5.6
5555,,5.61
5556,,5.61
5557,,5.61
5558,,5.62
5559,,5.62
5560,,5.63
5561,,5.63
5562,,5.63
5563,,5.64
5564,,5.64
5565,,5.65
5566,,5.65
5567,,5.65
5568,,5.66
5569,,5.66
5570,,5.67
5571,,5.67
5572,,5.67
5573,,5.68
5574,,5.68
5575,,5.69
5576,,5.69
5577,,5.69
5578,,5.7
5579,,5.7
5580,,5.71
5581,,5.71
5582,,5.71
5583,,5.72
5584,,5.72
5585,,5.73
5586,,5.73
5587,,5.73
5588,,5.74
5589,,5.74
5590,,5.75
5591,,5.75
5592,,5.75
5593,,5.76
5594,,5.76
5595,,5.77
5596,,5.77
5597,,5.77
5598,,5.78
5599,,5.78
5600,,5.79
5601,,5.79
5602,,5.79
5603,,5.8
5604,,5.8
5605,,5.81
5606,,5.81
5607,,5.81
5608,,5.82
5609,,5.82
5610,,5.83
5611,,5.83
5612,,5.83
5613,,5.84
5614,,5.84
5615,,5.85
5616,,5.85
5617,,5.85
5618,,5.86
5619,,5.86
5620,,5.87
5621,,5.87
5622,,5.87
5623,,5.88
5624,,5.88
5625,,5.89
5626,,5.89
5627,,5.89
5628,,5.9
5629,,5.9
5630,,5.91
5631,,5.91
5632,,5.91
5633,,5.92
5634,,5.92
5635,,5.93
5636,,5.93
5637,,5.93
5638,,5.94
5639,,5.94
5640,,5.95
5641,,5.95
5642,,5.95
5643,,5.96
5644,,5.96
5645,,5.97
5646,,5.97
5647,,5.97
5648,,5.98
5649,,5.98
5650,,5.99
5651,,5.99
5652,,5.99
5653,,6.0
5654,,6.0
5655,,6.01
5656,,6.01
5657,,6.01
5658,,6.02
5659,,6.02
5660,,6.03
5661,,6.03
5662,,6.03
5663,,6.04
5664,,6.04
5665,,6.05
5666,,6.05
5667,,6.05
5668,,6.06
5669,,6.06
5670,,6.07
5671,,6.07
5672,,6.07
5673,,6.08
5674,,6.08
5675,,6.09
5676,,6.09
5677,,6.09
5678,,6.1
5679,,6.1
5680,,6.11
5681,,6.11
5682,,6.11
5683,,6.12
5684,,6.12
5685,,6.13
5686,,6.13
5687,,6.13
5688,,6.14
5689,,6.14
5690,,6.15
5691,,6.15
5692,,6.15
5693,,6.16
5694,,6.16
5695,,6.17
5696,,6.17
5697,,6.17
5698,,6.18
5699,,6.18
5700,,6.19
5701,,6.19
5702,,6.19
5703,,6.2
5704,,6.2
5705,,6.21
5706,,6.21
5707,,6.21
5708,,6.22
5709,,6.22
5710,,6.23
5711,,6.23
5712,,6.23
5713,,6.24
5714,,6.24
5715,,6.25
5716,,6.25
5717,,6.25
5718,,6.26
5719,,6.26
5720,,6.27
5721,,6.27
5722,,6.27
5723,,6.28
5724,,6.28
5725,,6.29
5726,,6.29
5727,,6.29
5728,,6.3
5729,,6.3
5730,,6.31
5731,,6.31
5732,,6.31
5733,,6.32
5734,,6.32
5735,,6.33
5736,,6.33
5737,,6.33
5738,,6.34
5739,,6.34
5740,,6.35
5741,,6.35
5742,,6.35
5743,,6.36
5744,,6.36
5745,,6.37
5746,,6.37
5747,,6.37
5748,,6.38
5749,,6.38
5750,,6.39
5751,,6.39
5752,,6.39
5753,,6.4
5754,,6.4
5755,,6.41
5756,,6.41
5757,,6.41
5758,,6.42
5759,,6.42
5760,,6.43
5761,,6.43
5762,,6.43
5763,,6.44
5764,,6.44
5765,,6.45
5766,,6.45
5767,,6.45
5768,,6.46
5769,,6.46
5770,,6.47
5771,,6.47
5772,,6.47
5773,,6.48
5774,,6.48
5775,,6.49
5776,,6.49
5777,,6.49
5778,,6.5
5779,,6.5
5780,,6.51
5781,,6.51
5782,,6.51
5783,,6.52
5784,,6.52
5785,,6.53
5786,,6.53
5787,,6.53
5788,,6.54
5789,,6.54
5790,,6.55
5791,,6.55
5792,,6.55
5793,,6.56
5794,,6.56
5795,,6.57
5796,,6.57
5797,,6.57
5798,,6.58
5799,,6.58
5800,,6.59
5801,,6.59
5802,,6.59
5803,,6.6
5804,,6.6
5805,,6.61
5806,,6.61
5807,,6.61
5808,,6.62
5809,,6.62
5810,,6.63
5811,,6.63
5812,,6.63
5813,,6.64
5814,,6.64
5815,,6.65
5816,,6.65
5817,,6.65
5818,,6.66
5819,,6.66
5820,,6.67
5821,,6.67
5822,,6.67
5823,,6.68
5824,,6.68
5825,,6.69
5826,,6.69
5827,,6.69
5828,,6.7
5829,,6.7
5830,,6.71
5831,,6.71
5832,,6.71
5833,,6.72
5834,,6.72
5835,,6.73
5836,,6.73
5837,,6.73
5838,,6.74
5839,,6.74
5840,,6.75
5841,,6.75
5842,,6.75
5843,,6.76
5844,,6.76
5845,,6.77
5846,,6.77
5847,,6.77
5848,,6.78
5849,,6.78
5850,,6.79
5851,,6.79
5852,,6.79
5853,,6.8
5854,,6.8
5855,,6.81
5856,,6.81
5857,,6.81
5858,,6.82
5859,,6.82
5860,,6.83
5861,,6.83
5862,,6.83
5863,,6.84
5864,,6.84
5865,,6.85
5866,,6.85
5867,,6.85
5868,,6.86
5869,,6.86
5870,,6.87
5871,,6.87
5872,,6.87
5873,,6.88
5874,,6.88
5875,,6.89
5876,,6.89
5877,,6.89
5878,,6.9
5879,,6.9
5880,,6.91
5881,,6.91
5882,,6.91
5883,,6.92
5884,,6.92
5885,,6.93
5886,,6.93
5887,,6.93
5888,,6.94
5889,,6.94
5890,,6.95
5891,,6.95
5892,,6.95
5893,,6.96
5894,,6.96
5895,,6.97
5896,,6.97
5897,,6.97
5898,,6.98
5899,,6.98
5900,,6.99
5901,,6.99
5902,,6.99
5903,,7.0
5904,,7.0
5905,,7.01
5906,,7.01
5907,,7.01
5908,,7.02
5909,,7.02
5910,,7.03
5911,,7.03
5912,,7.03
5913,,7.04
5914,,7.04
5915,,7.05
5916,,7.05
5917,,7.05
5918,,7.06
5919,,7.06
5920,,7.07
5921,,7.07
5922,,7.07
5923,,7.08
5924,,7.08
5925,,7.09
5926,,7.09
5927,,7.09
5928,,7.1
5929,,7.1
5930,,7.11
5931,,7.11
5932,,7.11
5933,,7.12
5934,,7.12
5935,,7.13
5936,,7.13
5937,,7.13
5938,,7.14
5939,,7.14
5940,,7.15
5941,,7.15
5942,,7.15
5943,,7.16
5944,,7.16
5945,,7.17
5946,,7.17
5947,,7.17
5948,,7.18
5949,,7.18
5950,,7.19
5951,,7.19
5952,,7.19
5953,,7.2
5954,,7.2
5955,,7.21
5956,,7.21
5957,,7.21
5958,,7.22
5959,,7.22
5960,,7.23
5961,,7.23
5962,,7.23
5963,,7.24
5964,,7.24
5965,,7.25
5966,,7.25
5967,,7.25
5968,,7.26
5969,,7.26
5970,,7.27
5971,,7.27
5972,,7.27
5973,,7.28
5974,,7.28
5975,,7.29
5976,,7.29
5977,,7.29
5978,,7.3
5979,,7.3
5980,,7.31
5981,,7.31
5982,,7.31
5983,,7.32
5984,,7.32
5985,,7.33
5986,,7.33
5987,,7.33
5988,,7.34
5989,,7.34
5990,,7.35
5991,,7.35
5992,,7.35
5993,,7.36
5994,,7.36
5995,,7.37
5996,,7.37
5997,,7.37
5998,,7.38
5999,,7.38
6000,,7.39
6001,,7.39
6002,,7.39
6003,,7.4
6004,,7.4
6005,,7.41
6006,,7.41
6007,,7.41
6008,,7.42
6009,,7.42
6010,,7.43
6011,,7.43
6012,,7.43
6013,,7.44
6014,,7.44
6015,,7.45
6016,,7.45
6017,,7.45
6018,,7.46
6019,,7.46
6020,,7.47
6021,,7.47
6022,,7.47
6023,,7.48
6024,,7.48
6025,,7.49
6026,,7.49
6027,,7.49
6028,,7.5
6029,,7.5
6030,,7.51
6031,,7.51
6032,,7.51
6033,,7.52
6034,,7.52
6035,,7.53
6036,,7.53
6037,,7.53
6038,,7.54
6039,,7.54
6040,,7.55
6041,,7.55
6042,,7.55
6043,,7.56
6044,,7.56
6045,,7.57
6046,,7.57
6047,,7.57
6048,,7.58
6049,,7.58
6050,,7.59
6051,,7.59
6052,,7.59
6053,,7.6
6054,,7.6
6055,,7.61
6056,,7.61
6057,,7.61
6058,,7.62
6059,,7.62
6060,,7.63
6061,,7.63
6062,,7.63
6063,,7.64
6064,,7.64
6065,,7.65
6066,,7.65
6067,,7.65
6068,,7.66
6069,,7.66
6070,,7.67
6071,,7.67
6072,,7.67
6073,,7.68
6074,,7.68
6075,,7.69
6076,,7.69
6077,,7.69
6078,,7.7
6079,,7.7
6080,,7.71
6081,,7.71
6082,,7.71
6083,,7.72
6084,,7.72
6085,,7.73
6086,,7.73
6087,,7.73
6088,,7.74
6089,,7.74
6090,,7.75
6091,,7.75
6092,,7.75
6093,,7.76
6094,,7.76
6095,,7.77
6096,,7.77
6097,,7.77
6098,,7.78
6099,,7.78
6100,,7.79
6101,,7.79
6102,,7.79
6103,,7.8
6104,,7.8
6105,,7.81
6106,,7.81
6107,,7.81
6108,,7.82
6109,,7.82
6110,,7.83
6111,,7.83
6112,,7.83
6113,,7.84
6114,,7.84
6115,,7.85
6116,,7.85
6117,,7.85
6118,,7.86
6119,,7.86
6120,,7.87
6121,,7.87
6122,,7.87
6123,,7.88
6124,,7.88
6125,,7.89
6126,,7.89
6127,,7.89
6128,,7.9
6129,,7.9
6130,,7.91
6131,,7.91
6132,,7.91
6133,,7.92
6134,,7.92
6135,,7.93
6136,,7.93
6137,,7.93
6138,,7.94
6139,,7.94
6140,,7.95
6141,,7.95
6142,,7.95
6143,,7.96
6144,,7.96
6145,,7.97
6146,,7.97
6147,,7.97
6148,,7.98
6149,,7.98
6150,,7.99
6151,,7.99
6152,,7.99
6153,,8.0
6154,,8.0
6155,,8.01
6156,,8.01
6157,,8.01
6158,,8.02
6159,,8.02
6160,,8.03
6161,,8.03
6162,,8.03
6163,,8.04
6164,,8.04
6165,,8.05
6166,,8.05
6167,,8.05
6168,,8.06
6169,,8.06
6170,,8.07
6171,,8.07
6172,,8.07
6173,,8.08
6174,,8.08
6175,,8.09
6176,,8.09
6177,,8.09
6178,,8.1
6179,,8.1
6180,,8.11
6181,,8.11
6182,,8.11
6183,,8.12
6184,,8.12
6185,,8.13
6186,,8.13
6187,,8.13
6188,,8.14
6189,,8.14
6190,,8.15
6191,,8.15
6192,,8.15
6193,,8.16
6194,,8.16
6195,,8.17
6196,,8.17
6197,,8.17
6198,,8.18
6199,,8.18
6200,,8.19
6201,,8.19
6202,,8.19
6203,,8.2
6204,,8.2
6205,,8.21
6206,,8.21
6207,,8.21
6208,,8.22
6209,,8.22
6210,,8.23
6211,,8.23
6212,,8.23
6213,,8.24
6214,,8.24
6215,,8.25
6216,,8.25
6217,,8.25
6218,,8.26
6219,,8.26
6220,,8.27
6221,,8.27
6222,,8.27
6223,,8.28
6224,,8.28
6225,,8.29
6226,,8.29
6227,,8.29
6228,,8.3
6229,,8.3
6230,,8.31
6231,,8.31
6232,,8.31
6233,,8.32
6234,,8.32
6235,,8.33
6236,,8.33
6237,,8.33
6238,,8.34
6239,,8.34
6240,,8.34
6241,,8.35
6242,,8.35
6243,,8.36
6244,,8.36
6245,,8.36
6246,,8.37
6247,,8.37
6248,,8.38
6249,,8.38
6250,,8.38
6251,,8.39
6252,,8.39
6253,,8.4
6254,,8.4
6255,,8.4
6256,,8.41
6257,,8.41
6258,,8.42
6259,,8.42
6260,,8.42
6261,,8.43
6262,,8.43
6263,,8.44
6264,,8.44
6265,,8.44
6266,,8.45
6267,,8.45
6268,,8.46
6269,,8.46
6270,,8.46
6271,,8.47
6272,,8.47
6273,,8.48
6274,,8.48
6275,,8.48
6276,,8.49
6277,,8.49
6278,,8.5
6279,,8.5
6280,,8.5
6281,,8.51
6282,,8.51
6283,,8.52
6284,,8.52
6285,,8.52
6286,,8.53
6287,,8.53
6288,,8.54
6289,,8.54
6290,,8.54
6291,,8.55
6292,,8.55
6293,,8.56
6294,,8.56
6295,,8.56
6296,,8.57
6297,,8.57
6298,,8.58
6299,,8.58
6300,,8.58
6301,,8.59
6302,,8.59
6303,,8.6
6304,,8.6
6305,,8.6
6306,,8.61
6307,,8.61
6308,,8.62
6309,,8.62
6310,,8.62
6311,,8.63
6312,,8.63
6313,,8.64
6314,,8.64
6315,,8.64
6316,,8.65
6317,,8.65
6318,,8.66
6319,,8.66
6320,,8.66
6321,,8.67
6322,,8.67
6323,,8.68
6324,,8.68
6325,,8.68
6326,,8.69
6327,,8.69
6328,,8.7
6329,,8.7
6330,,8.7
6331,,8.71
6332,,8.71
6333,,8.72
6334,,8.72
6335,,8.72
6336,,8.73
6337,,8.73
6338,,8.74
6339,,8.74
6340,,8.74
6341,,8.75
6342,,8.75
6343,,8.76
6344,,8.76
6345,,8.76
6346,,8.77
6347,,8.77
6348,,8.78
6349,,8.78
6350,,8.78
6351,,8.79
6352,,8.79
6353,,8.8
6354,,8.8
6355,,8.8
6356,,8.81
6357,,8.81
6358,,8.82
6359,,8.82
6360,,8.82
6361,,8.83
6362,,8.83
6363,,8.84
6364,,8.84
6365,,8.84
6366,,8.85
6367,,8.85
6368,,8.86
6369,,8.86
6370,,8.86
6371,,8.87
6372,,8.87
6373,,8.88
6374,,8.88
6375,,8.88
6376,,8.89
6377,,8.89
6378,,8.9
6379,,8.9
6380,,8.9
6381,,8.91
6382,,8.91
6383,,8.92
6384,,8.92
6385,,8.92
6386,,8.93
6387,,8.93
6388,,8.94
6389,,8.94
6390,,8.94
6391,,8.95
6392,,8.95
6393,,8.96
6394,,8.96
6395,,8.96
6396,,8.97
6397,,8.97
6398,,8.98
6399,,8.98
6400,,8.98
6401,,8.99
6402,,8.99
6403,,9.0
6404,,9.0
6405,,9.0
6406,,9.01
6407,,9.01
6408,,9.02
6409,,9.02
6410,,9.02
6411,,9.03
6412,,9.03
6413,,9.04
6414,,9.04
6415,,9.04
6416,,9.05
6417,,9.05
6418,,9.06
6419,,9.06
6420,,9.06
6421,,9.07
6422,,9.07
6423,,9.08
6424,,9.08
6425,,9.08
6426,,9.09
6427,,9.09
6428,,9.09
6429,,9.1
6430,,9.1
6431,,9.11
6432,,9.11
6433,,9.11
6434,,9.12
6435,,9.12
6436,,9.13
6437,,9.13
6438,,9.14
6439,,9.14
6440,,9.14
6441,,9.15
6442,,9.15
6443,,9.16
6444,,9.16
6445,,9.16
6446,,9.17
6447,,9.17
6448,,9.18
6449,,9.18
6450,,9.18
6451,,9.19
6452,,9.19
6453,,9.2
6454,,9.2
6455,,9.2
6456,,9.21
6457,,9.21
6458,,9.22
6459,,9.22
6460,,9.22
6461,,9.23
6462,,9.23
6463,,9.24
6464,,9.24
6465,,9.24
6466,,9.25
6467,,9.25
6468,,9.26
6469,,9.26
6470,,9.26
6471,,9.27
6472,,9.27
6473,,9.28
6474,,9.28
6475,,9.28
6476,,9.29
6477,,9.29
6478,,9.3
6479,,9.3
6480,,9.3
6481,,9.31
6482,,9.31
6483,,9.32
6484,,9.32
6485,,9.32
6486,,9.33
6487,,9.33
6488,,9.34
6489,,9.34
6490,,9.34
6491,,9.35
6492,,9.35
6493,,9.35
6494,,9.36
6495,,9.36
6496,,9.37
6497,,9.37
6498,,9.37
6499,,9.38
6500,,9.38
6501,,9.39
6502,,9.39
6503,,9.4
6504,,9.4
6505,,9.4
6506,,9.41
6507,,9.41
6508,,9.42
6509,,9.42
6510,,9.42
6511,,9.43
6512,,9.43
6513,,9.44
6514,,9.44
6515,,9.44
6516,,9.45
6517,,9.45
6518,,9.46
6519,,9.46
6520,,9.46
6521,,9.47
6522,,9.47
6523,,9.48
6524,,9.48
6525,,9.48
6526,,9.49
6527,,9.49
6528,,9.5
6529,,9.5
6530,,9.5
6531,,9.51
6532,,9.51
6533,,9.52
6534,,9.52
6535,,9.52
6536,,9.53
6537,,9.53
6538,,9.54
6539,,9.54
6540,,9.54
6541,,9.55
6542,,9.55
6543,,9.56
6544,,9.56
6545,,9.56
6546,,9.57
6547,,9.57
6548,,9.58
6549,,9.58
6550,,9.58
6551,,9.59
6552,,9.59
6553,,9.6
6554,,9.6
6555,,9.6
6556,,9.61
6557,,9.61
6558,,9.61
6559,,9.62
6560,,9.62
6561,,9.63
6562,,9.63
6563,,9.64
6564,,9.64
6565,,9.64
6566,,9.65
6567,,9.65
6568,,9.66
6569,,9.66
6570,,9.66
6571,,9.67
6572,,9.67
6573,,9.68
6574,,9.68
6575,,9.68
6576,,9.69
6577,,9.69
6578,,9.7
6579,,9.7
6580,,9.7
6581,,9.71
6582,,9.71
6583,,9.72
6584,,9.72
6585,,9.72
6586,,9.73
6587,,9.73
6588,,9.74
6589,,9.74
6590,,9.74
6591,,9.75
6592,,9.75
6593,,9.76
6594,,9.76
6595,,9.76
6596,,9.77
6597,,9.77
6598,,9.78
6599,,9.78
6600,,9.78
6601,,9.79
6602,,9.79
6603,,9.8
6604,,9.8
6605,,9.8
6606,,9.81
6607,,9.81
6608,,9.82
6609,,9.82
6610,,9.82
6611,,9.83
6612,,9.83
6613,,9.84
6614,,9.84
6615,,9.84
6616,,9.85
6617,,9.85
6618,,9.85
6619,,9.86
6620,,9.86
6621,,9.87
6622,,9.87
6623,,9.87
6624,,9.88
6625,,9.88
6626,,9.89
6627,,9.89
6628,,9.9
6629,,9.9
6630,,9.9
6631,,9.91
6632,,9.91
6633,,9.92
6634,,9.92
6635,,9.92
6636,,9.93
6637,,9.93
6638,,9.94
6639,,9.94
6640,,9.94
6641,,9.95
6642,,9.95
6643,,9.96
6644,,9.96
6645,,9.96
6646,,9.97
6647,,9.97
6648,,9.98
6649,,9.98
6650,,9.98
6651,,9.99
6652,,9.99
6653,,10.0
6654,,10.0
6655,,10.0
6656,,10.01
6657,,10.01
6658,,10.02
6659,,10.02
6660,,10.02
6661,,10.03
6662,,10.03
6663,,10.04
6664,,10.04
6665,,10.04
6666,,10.05
6667,,10.05
6668,,10.06
6669,,10.06
6670,,10.06
6671,,10.07
6672,,10.07
6673,,10.08
6674,,10.08
6675,,10.08
6676,,10.09
6677,,10.09
6678,,10.1
6679,,10.1
6680,,10.1
6681,,10.11
6682,,10.11
6683,,10.11
6684,,10.12
6685,,10.12
6686,,10.13
6687,,10.13
6688,,10.14
6689,,10.14
6690,,10.14
6691,,10.15
6692,,10.15
6693,,10.16
6694,,10.16
6695,,10.16
6696,,10.17
6697,,10.17
6698,,10.18
6699,,10.18
6700,,10.18
6701,,10.19
6702,,10.19
6703,,10.2
6704,,10.2
6705,,10.2
6706,,10.21
6707,,10.21
6708,,10.22
6709,,10.22
6710,,10.22
6711,,10.23
6712,,10.23
6713,,10.24
6714,,10.24
6715,,10.24
6716,,10.25
6717,,10.25
6718,,10.26
6719,,10.26
6720,,10.26
6721,,10.27
6722,,10.27
6723,,10.28
6724,,10.28
6725,,10.28
6726,,10.29
6727,,10.29
6728,,10.3
6729,,10.3
6730,,10.3
6731,,10.31
6732,,10.31
6733,,10.32
6734,,10.32
6735,,10.32
6736,,10.33
6737,,10.33
6738,,10.34
6739,,10.34
6740,,10.34
6741,,10.35
6742,,10.35
6743,,10.36
6744,,10.36
6745,,10.37
6746,,10.37
6747,,10.37
6748,,10.38
6749,,10.38
6750,,10.39
6751,,10.39
6752,,10.4
6753,,10.4
6754,,10.4
6755,,10.41
6756,,10.41
6757,,10.42
6758,,10.42
6759,,10.42
6760,,10.43
6761,,10.43
6762,,10.44
6763,,10.44
6764,,10.44
6765,,10.45
6766,,10.45
6767,,10.46
6768,,10.46
6769,,10.46
6770,,10.47
6771,,10.47
6772,,10.48
6773,,10.48
6774,,10.48
6775,,10.49
6776,,10.49
6777,,10.5
6778,,10.5
6779,,10.5
6780,,10.51
6781,,10.51
6782,,10.52
6783,,10.52
6784,,10.52
6785,,10.53
6786,,10.53
6787,,10.54
6788,,10.54
6789,,10.54
6790,,10.55
6791,,10.55
6792,,10.56
6793,,10.56
6794,,10.56
6795,,10.57
6796,,10.57
6797,,10.58
6798,,10.58
6799,,10.58
6800,,10.59
6801,,10.59
6802,,10.6
6803,,10.6
6804,,10.6
6805,,10.61
6806,,10.61
6807,,10.61
6808,,10.62
6809,,10.62
6810,,10.63
6811,,10.63
6812,,10.64
6813,,10.64
6814,,10.64
6815,,10.65
6816,,10.65
6817,,10.66
6818,,10.66
6819,,10.66
6820,,10.67
6821,,10.67
6822,,10.68
6823,,10.68
6824,,10.68
6825,,10.69
6826,,10.69
6827,,10.7
6828,,10.7
6829,,10.7
6830,,10.71
6831,,10.71
6832,,10.72
6833,,10.72
6834,,10.72
6835,,10.73
6836,,10.73
6837,,10.74
6838,,10.74
6839,,10.74
6840,,10.75
6841,,10.75
6842,,10.76
6843,,10.76
6844,,10.76
6845,,10.77
6846,,10.77
6847,,10.78
6848,,10.78
6849,,10.78
6850,,10.79
6851,,10.79
6852,,10.8
6853,,10.8
6854,,10.8
6855,,10.81
6856,,10.81
6857,,10.82
6858,,10.82
6859,,10.82
6860,,10.83
6861,,10.83
6862,,10.84
6863,,10.84
6864,,10.84
6865,,10.85
6866,,10.85
6867,,10.86
6868,,10.86
6869,,10.86
6870,,10.87
6871,,10.87
6872,,10.87
6873,,10.88
6874,,10.88
6875,,10.89
6876,,10.89
6877,,10.9
6878,,10.9
6879,,10.9
6880,,10.91
6881,,10.91
6882,,10.92
6883,,10.92
6884,,10.92
6885,,10.93
6886,,10.93
6887,,10.94
6888,,10.94
6889,,10.94
6890,,10.95
6891,,10.95
6892,,10.96
6893,,10.96
6894,,10.96
6895,,10.97
6896,,10.97
6897,,10.98
6898,,10.98
6899,,10.98
6900,,10.99
6901,,10.99
6902,,11.0
6903,,11.0
6904,,11.0
6905,,11.01
6906,,11.01
6907,,11.02
6908,,11.02
6909,,11.02
6910,,11.03
6911,,11.03
6912,,11.04
6913,,11.04
6914,,11.04
6915,,11.05
6916,,11.05
6917,,11.06
6918,,11.06
6919,,11.06
6920,,11.07
6921,,11.07
6922,,11.08
6923,,11.08
6924,,11.08
6925,,11.09
6926,,11.09
6927,,11.1
6928,,11.1
6929,,11.1
6930,,11.11
6931,,11.11
6932,,11.11
6933,,11.12
6934,,11.12
6935,,11.13
6936,,11.13
6937,,11.14
6938,,11.14
6939,,11.14
6940,,11.15
6941,,11.15
6942,,11.16
6943,,11.16
6944,,11.16
6945,,11.17
6946,,11.17
6947,,11.18
6948,,11.18
6949,,11.18
6950,,11.19
6951,,11.19
6952,,11.2
6953,,11.2
6954,,11.2
6955,,11.21
6956,,11.21
6957,,11.22
6958,,11.22
6959,,11.22
6960,,11.23
6961,,11.23
6962,,11.24
6963,,11.24
6964,,11.24
6965,,11.25
6966,,11.25
6967,,11.26
6968,,11.26
6969,,11.26
6970,,11.27
6971,,11.27
6972,,11.28
6973,,11.28
6974,,11.28
6975,,11.29
6976,,11.29
6977,,11.3
6978,,11.3
6979,,11.3
6980,,11.31
6981,,11.31
6982,,11.32
6983,,11.32
6984,,11.32
6985,,11.33
6986,,11.33
6987,,11.34
6988,,11.34
6989,,11.34
6990,,11.35
6991,,11.35
6992,,11.36
6993,,11.36
6994,,11.36
6995,,11.37
6996,,11.37
6997,,11.37
6998,,11.38
6999,,11.38
7000,,11.39
7001,,11.39
7002,,11.4
7003,,11.4
7004,,11.4
7005,,11.41
7006,,11.41
7007,,11.42
7008,,11.42
7009,,11.42
7010,,11.43
7011,,11.43
7012,,11.44
7013,,11.44
7014,,11.44
7015,,11.45
7016,,11.45
7017,,11.46
7018,,11.46
7019,,11.46
7020,,11.47
7021,,11.47
7022,,11.48
7023,,11.48
7024,,11.48
7025,,11.49
7026,,11.49
7027,,11.5
7028,,11.5
7029,,11.5
7030,,11.51
7031,,11.51
7032,,11.52
7033,,11.52
7034,,11.52
7035,,11.53
7036,,11.53
7037,,11.54
7038,,11.54
7039,,11.54
7040,,11.55
7041,,11.55
7042,,11.56
7043,,11.56
7044,,11.56
7045,,11.57
7046,,11.57
7047,,11.58
7048,,11.58
7049,,11.58
7050,,11.59
7051,,11.59
7052,,11.6
7053,,11.6
7054,,11.6
7055,,11.61
7056,,11.61
7057,,11.62
7058,,11.62
7059,,11.62
7060,,11.63
7061,,11.63
7062,,11.64
7063,,11.64
7064,,11.64
7065,,11.65
7066,,11.65
7067,,11.66
7068,,11.66
7069,,11.66
7070,,11.67
7071,,11.67
7072,,11.68
7073,,11.68
7074,,11.68
7075,,11.69
7076,,11.69
7077,,11.7
7078,,11.7
7079,,11.7
7080,,11.71
7081,,11.71
7082,,11.72
7083,,11.72
7084,,11.72
7085,,11.73
7086,,11.73
7087,,11.74
7088,,11.74
7089,,11.74
7090,,11.75
7091,,11.75
7092,,11.76
7093,,11.76
7094,,11.76
7095,,11.77
7096,,11.77
7097,,11.78
7098,,11.78
7099,,11.78
7100,,11.79
7101,,11.79
7102,,11.8
7103,,11.8
7104,,11.8
7105,,11.81
7106,,11.81
7107,,11.82
7108,,11.82
7109,,11.82
7110,,11.83
7111,,11.83
7112,,11.84
7113,,11.84
7114,,11.84
7115,,11.85
7116,,11.85
7117,,11.86
7118,,11.86
7119,,11.86
7120,,11.87
7121,,11.87
7122,,11.87
7123,,11.88
7124,,11.88
7125,,11.89
7126,,11.89
7127,,11.9
7128,,11.9
7129,,11.9
7130,,11.91
7131,,11.91
7132,,11.92
7133,,11.92
7134,,11.92
7135,,11.93
7136,,11.93
7137,,11.94
7138,,11.94
7139,,11.94
7140,,11.95
7141,,11.95
7142,,11.96
7143,,11.96
7144,,11.96
7145,,11.97
7146,,11.97
7147,,11.98
7148,,11.98
7149,,11.98
7150,,11.99
7151,,11.99
7152,,12.0
7153,,12.0
7154,,12.0
7155,,12.01
7156,,12.01
7157,,12.02
7158,,12.02
7159,,12.02
7160,,12.03
7161,,12.03
7162,,12.04
7163,,12.04
7164,,12.04
7165,,12.05
7166,,12.05
7167,,12.06
7168,,12.06
7169,,12.06
7170,,12.07
7171,,12.07
7172,,12.08
7173,,12.08
7174,,12.08
7175,,12.09
7176,,12.09
7177,,12.1
7178,,12.1
7179,,12.1
7180,,12.11
7181,,12.11
7182,,12.12
7183,,12.12
7184,,12.12
7185,,12.13
7186,,12.13
7187,,12.14
7188,,12.14
7189,,12.14
7190,,12.15
7191,,12.15
7192,,12.16
7193,,12.16
7194,,12.16
7195,,12.17
7196,,12.17
7197,,12.18
7198,,12.18
7199,,12.18
7200,,12.19
7201,,12.19
7202,,12.2
7203,,12.2
7204,,12.2
7205,,12.21
7206,,12.21
7207,,12.22
7208,,12.22
7209,,12.22
7210,,12.23
7211,,12.23
7212,,12.24
7213,,12.24
7214,,12.24
7215,,12.25
7216,,12.25
7217,,12.26
7218,,12.26
7219,,12.26
7220,,12.27
7221,,12.27
7222,,12.28
7223,,12.28
7224,,12.28
7225,,12.29
7226,,12.29
7227,,12.3
7228,,12.3
7229,,12.3
7230,,12.31
7231,,12.31
7232,,12.32
7233,,12.32
7234,,12.32
7235,,12.33
7236,,12.33
7237,,12.34
7238,,12.34
7239,,12.34
7240,,12.35
7241,,12.35
7242,,12.36
7243,,12.36
7244,,12.36
7245,,12.37
7246,,12.37
7247,,12.37
7248,,12.38
7249,,12.38
7250,,12.39
7251,,12.39
7252,,12.4
7253,,12.4
7254,,12.4
7255,,12.41
7256,,12.41
7257,,12.42
7258,,12.42
7259,,12.42
7260,,12.43
7261,,12.43
7262,,12.44
7263,,12.44
7264,,12.44
7265,,12.45
7266,,12.45
7267,,12.46
7268,,12.46
7269,,12.46
7270,,12.47
7271,,12.47
7272,,12.48
7273,,12.48
7274,,12.48
7275,,12.49
7276,,12.49
7277,,12.5
7278,,12.5
7279,,12.5
7280,,12.51
7281,,12.51
7282,,12.52
7283,,12.52
7284,,12.52
7285,,12.53
7286,,12.53
7287,,12.54
7288,,12.54
7289,,12.54
7290,,12.55
7291,,12.55
7292,,12.56
7293,,12.56
7294,,12.56
7295,,12.57
7296,,12.57
7297,,12.58
7298,,12.58
7299,,12.58
7300,,12.59
7301,,12.59
7302,,12.6
7303,,12.6
7304,,12.6
7305,,12.61
7306,,12.61
7307,,12.62
7308,,12.62
7309,,12.62
7310,,12.63
7311,,12.63
7312,,12.64
7313,,12.64
7314,,12.64
7315,,12.65
7316,,12.65
7317,,12.66
7318,,12.66
7319,,12.66
7320,,12.67
7321,,12.67
7322,,12.68
7323,,12.68
7324,,12.68
7325,,12.69
7326,,12.69
7327,,12.7
7328,,12.7
7329,,12.7
7330,,12.71
7331,,12.71
7332,,12.72
7333,,12.72
7334,,12.72
7335,,12.73
7336,,12.73
7337,,12.74
7338,,12.74
7339,,12.74
7340,,12.75
7341,,12.75
7342,,12.76
7343,,12.76
7344,,12.76
7345,,12.77
7346,,12.77
7347,,12.78
7348,,12.78
7349,,12.78
7350,,12.79
7351,,12.79
7352,,12.8
7353,,12.8
7354,,12.8
7355,,12.81
7356,,12.81
7357,,12.82
7358,,12.82
7359,,12.82
7360,,12.83
7361,,12.83
7362,,12.84
7363,,12.84
7364,,12.84
7365,,12.85
7366,,12.85
7367,,12.86
7368,,12.86
7369,,12.86
7370,,12.87
7371,,12.87
7372,,12.88
7373,,12.88
7374,,12.88
7375,,12.89
7376,,12.89
7377,,12.9
7378,,12.9
7379,,12.9
7380,,12.91
7381,,12.91
7382,,12.92
7383,,12.92
7384,,12.92
7385,,12.93
7386,,12.93
7387,,12.94
7388,,12.94
7389,,12.94
7390,,12.95
7391,,12.95
7392,,12.96
7393,,12.96
7394,,12.96
7395,,12.97
7396,,12.97
7397,,12.98
7398,,12.98
7399,,12.98
7400,,12.99
7401,,12.99
7402,,13.0
7403,,13.0
7404,,13.0
7405,,13.01
7406,,13.01
7407,,13.02
7408,,13.02
7409,,13.02
7410,,13.03
7411,,13.03
7412,,13.04
7413,,13.04
7414,,13.04
7415,,13.05
7416,,13.05
7417,,13.06
7418,,13.06
7419,,13.06
7420,,13.07
7421,,13.07
7422,,13.08
7423,,13.08
7424,,13.08
7425,,13.09
7426,,13.09
7427,,13.1
7428,,13.1
7429,,13.1
7430,,13.11
7431,,13.11
7432,,13.12
7433,,13.12
7434,,13.12
7435,,13.13
7436,,13.13
7437,,13.13
7438,,13.14
7439,,13.14
7440,,13.15
7441,,13.15
7442,,13.15
7443,,13.16
7444,,13.16
7445,,13.17
7446,,13.17
7447,,13.18
7448,,13.18
7449,,13.18
7450,,13.19
7451,,13.19
7452,,13.2
7453,,13.2
7454,,13.2
7455,,13.21
7456,,13.21
7457,,13.22
7458,,13.22
7459,,13.22
7460,,13.23
7461,,13.23
7462,,13.24
7463,,13.24
7464,,13.24
7465,,13.25
7466,,13.25
7467,,13.26
7468,,13.26
7469,,13.26
7470,,13.27
7471,,13.27
7472,,13.28
7473,,13.28
7474,,13.28
7475,,13.29
7476,,13.29
7477,,13.3
7478,,13.3
7479,,13.3
7480,,13.31
7481,,13.31
7482,,13.32
7483,,13.32
7484,,13.32
7485,,13.33
7486,,13.33
7487,,13.34
7488,,13.34
7489,,13.34
7490,,13.35
7491,,13.35
7492,,13.36
7493,,13.36
7494,,13.36
7495,,13.37
7496,,13.37
7497,,13.38
7498,,13.38
7499,,13.38
7500,,13.38
7501,,13.39
7502,,13.39
7503,,13.4
7504,,13.4
7505,,13.4
7506,,13.41
7507,,13.41
7508,,13.42
7509,,13.42
7510,,13.42
7511,,13.43
7512,,13.43
7513,,13.44
7514,,13.44
7515,,13.44
7516,,13.45
7517,,13.45
7518,,13.46
7519,,13.46
7520,,13.46
7521,,13.47
7522,,13.47
7523,,13.48
7524,,13.48
7525,,13.48
7526,,13.49
7527,,13.49
7528,,13.5
7529,,13.5
7530,,13.5
7531,,13.51
7532,,13.51
7533,,13.52
7534,,13.52
7535,,13.52
7536,,13.53
7537,,13.53
7538,,13.54
7539,,13.54
7540,,13.54
7541,,13.55
7542,,13.55
7543,,13.56
7544,,13.56
7545,,13.56
7546,,13.57
7547,,13.57
7548,,13.58
7549,,13.58
7550,,13.58
7551,,13.59
7552,,13.59
7553,,13.6
7554,,13.6
7555,,13.6
7556,,13.61
7557,,13.61
7558,,13.62
7559,,13.62
7560,,13.62
7561,,13.63
7562,,13.63
7563,,13.63
7564,,13.64
7565,,13.64
7566,,13.65
7567,,13.65
7568,,13.65
7569,,13.66
7570,,13.66
7571,,13.67
7572,,13.67
7573,,13.68
7574,,13.68
7575,,13.68
7576,,13.69
7577,,13.69
7578,,13.7
7579,,13.7
7580,,13.7
7581,,13.71
7582,,13.71
7583,,13.72
7584,,13.72
7585,,13.72
7586,,13.73
7587,,13.73
7588,,13.74
7589,,13.74
7590,,13.74
7591,,13.75
7592,,13.75
7593,,13.76
7594,,13.76
7595,,13.76
7596,,13.77
7597,,13.77
7598,,13.78
7599,,13.78
7600,,13.78
7601,,13.79
7602,,13.79
7603,,13.8
7604,,13.8
7605,,13.8
7606,,13.81
7607,,13.81
7608,,13.82
7609,,13.82
7610,,13.82
7611,,13.83
7612,,13.83
7613,,13.84
7614,,13.84
7615,,13.84
7616,,13.85
7617,,13.85
7618,,13.86
7619,,13.86
7620,,13.86
7621,,13.87
7622,,13.87
7623,,13.88
7624,,13.88
7625,,13.88
7626,,13.89
7627,,13.89
7628,,13.89
7629,,13.9
7630,,13.9
7631,,13.91
7632,,13.91
7633,,13.92
7634,,13.92
7635,,13.92
7636,,13.93
7637,,13.93
7638,,13.94
7639,,13.94
7640,,13.94
7641,,13.95
7642,,13.95
7643,,13.96
7644,,13.96
7645,,13.96
7646,,13.97
7647,,13.97
7648,,13.98
7649,,13.98
7650,,13.98
7651,,13.99
7652,,13.99
7653,,14.0
7654,,14.0
7655,,14.0
7656,,14.01
7657,,14.01
7658,,14.02
7659,,14.02
7660,,14.02
7661,,14.03
7662,,14.03
7663,,14.04
7664,,14.04
7665,,14.04
7666,,14.05
7667,,14.05
7668,,14.06
7669,,14.06
7670,,14.06
7671,,14.07
7672,,14.07
7673,,14.08
7674,,14.08
7675,,14.08
7676,,14.09
7677,,14.09
7678,,14.1
7679,,14.1
7680,,14.1
7681,,14.11
7682,,14.11
7683,,14.12
7684,,14.12
7685,,14.12
7686,,14.13
7687,,14.13
7688,,14.13
7689,,14.14
7690,,14.14
7691,,14.15
7692,,14.15
7693,,14.15
7694,,14.16
7695,,14.16
7696,,14.17
7697,,14.17
7698,,14.18
7699,,14.18
7700,,14.18
7701,,14.19
7702,,14.19
7703,,14.2
7704,,14.2
7705,,14.2
7706,,14.21
7707,,14.21
7708,,14.22
7709,,14.22
7710,,14.22
7711,,14.23
7712,,14.23
7713,,14.24
7714,,14.24
7715,,14.24
7716,,14.25
7717,,14.25
7718,,14.26
7719,,14.26
7720,,14.26
7721,,14.27
7722,,14.27
7723,,14.28
7724,,14.28
7725,,14.28
7726,,14.29
7727,,14.29
7728,,14.3
7729,,14.3
7730,,14.3
7731,,14.31
7732,,14.31
7733,,14.32
7734,,14.32
7735,,14.32
7736,,14.33
7737,,14.33
7738,,14.34
7739,,14.34
7740,,14.34
7741,,14.35
7742,,14.35
7743,,14.36
7744,,14.36
7745,,14.36
7746,,14.37
7747,,14.37
7748,,14.38
7749,,14.38
7750,,14.38
7751,,14.39
7752,,14.39
7753,,14.4
7754,,14.4
7755,,14.41
7756,,14.41
7757,,14.41
7758,,14.42
7759,,14.42
7760,,14.43
7761,,14.43
7762,,14.43
7763,,14.44
7764,,14.44
7765,,14.45
7766,,14.45
7767,,14.45
7768,,14.46
7769,,14.46
7770,,14.47
7771,,14.47
7772,,14.47
7773,,14.48
7774,,14.48
7775,,14.49
7776,,14.49
7777,,14.49
7778,,14.5
7779,,14.5
7780,,14.51
7781,,14.51
7782,,14.51
7783,,14.52
7784,,14.52
7785,,14.53
7786,,14.53
7787,,14.53
7788,,14.54
7789,,14.54
7790,,14.55
7791,,14.55
7792,,14.55
7793,,14.56
7794,,14.56
7795,,14.57
7796,,14.57
7797,,14.57
7798,,14.58
7799,,14.58
7800,,14.59
7801,,14.59
7802,,14.59
7803,,14.6
7804,,14.6
7805,,14.61
7806,,14.61
7807,,14.61
7808,,14.62
7809,,14.62
7810,,14.63
7811,,14.63
7812,,14.63
7813,,14.64
7814,,14.64
7815,,14.65
7816,,14.65
7817,,14.65
7818,,14.66
7819,,14.66
7820,,14.67
7821,,14.67
7822,,14.67
7823,,14.68
7824,,14.68
7825,,14.69
7826,,14.69
7827,,14.69
7828,,14.7
7829,,14.7
7830,,14.71
7831,,14.71
7832,,14.71
7833,,14.72
7834,,14.72
7835,,14.73
7836,,14.73
7837,,14.73
7838,,14.74
7839,,14.74
7840,,14.75
7841,,14.75
7842,,14.75
7843,,14.76
7844,,14.76
7845,,14.77
7846,,14.77
7847,,14.77
7848,,14.78
7849,,14.78
7850,,14.79
7851,,14.79
7852,,14.79
7853,,14.8
7854,,14.8
7855,,14.81
7856,,14.81
7857,,14.81
7858,,14.82
7859,,14.82
7860,,14.83
7861,,14.83
7862,,14.83
7863,,14.84
7864,,14.84
7865,,14.85
7866,,14.85
7867,,14.85
7868,,14.86
7869,,14.86
7870,,14.87
7871,,14.87
7872,,14.87
7873,,14.88
7874,,14.88
7875,,14.89
7876,,14.89
7877,,14.89
7878,,14.9
7879,,14.9
7880,,14.91
7881,,14.91
7882,,14.91
7883,,14.92
7884,,14.92
7885,,14.93
7886,,14.93
7887,,14.93
7888,,14.94
7889,,14.94
7890,,14.95
7891,,14.95
7892,,14.95
7893,,14.96
7894,,14.96
7895,,14.97
7896,,14.97
7897,,14.97
7898,,14.98
7899,,14.98
7900,,14.99
7901,,14.99
7902,,14.99
7903,,15.0
7904,,15.0
7905,,15.01
7906,,15.01
7907,,15.01
7908,,15.02
7909,,15.02
7910,,15.03
7911,,15.03
7912,,15.03
7913,,15.04
7914,,15.04
7915,,15.05
7916,,15.05
7917,,15.05
7918,,15.06
7919,,15.06
7920,,15.07
7921,,15.07
7922,,15.07
7923,,15.08
7924,,15.08
7925,,15.09
7926,,15.09
7927,,15.09
7928,,15.1
7929,,15.1
7930,,15.11
7931,,15.11
7932,,15.11
7933,,15.12
7934,,15.12
7935,,15.13
7936,,15.13
7937,,15.13
7938,,15.14
7939,,15.14
7940,,15.15
7941,,15.15
7942,,15.15
7943,,15.16
7944,,15.16
7945,,15.17
7946,,15.17
7947,,15.17
7948,,15.18
7949,,15.18
7950,,15.19
7951,,15.19
7952,,15.19
7953,,15.2
7954,,15.2
7955,,15.21
7956,,15.21
7957,,15.21
7958,,15.22
7959,,15.22
7960,,15.23
7961,,15.23
7962,,15.23
7963,,15.24
7964,,15.24
7965,,15.25
7966,,15.25
7967,,15.25
7968,,15.26
7969,,15.26
7970,,15.27
7971,,15.27
7972,,15.27
7973,,15.28
7974,,15.28
7975,,15.29
7976,,15.29
7977,,15.29
7978,,15.3
7979,,15.3
7980,,15.31
7981,,15.31
7982,,15.31
7983,,15.32
7984,,15.32
7985,,15.33
7986,,15.33
7987,,15.33
7988,,15.34
7989,,15.34
7990,,15.35
7991,,15.35
7992,,15.35
7993,,15.36
7994,,15.36
7995,,15.37
7996,,15.37
7997,,15.37
7998,,15.38
7999,,15.38
8000,,15.39
8001,,15.39
8002,,15.39
8003,,15.39
8004,,15.4
8005,,15.4
8006,,15.41
8007,,15.41
8008,,15.42
8009,,15.42
8010,,15.42
8011,,15.43
8012,,15.43
8013,,15.44
8014,,15.44
8015,,15.44
8016,,15.45
8017,,15.45
8018,,15.46
8019,,15.46
8020,,15.46
8021,,15.47
8022,,15.47
8023,,15.48
8024,,15.48
8025,,15.48
8026,,15.49
8027,,15.49
8028,,15.5
8029,,15.5
8030,,15.5
8031,,15.51
8032,,15.51
8033,,15.52
8034,,15.52
8035,,15.52
8036,,15.53
8037,,15.53
8038,,15.54
8039,,15.54
8040,,15.54
8041,,15.55
8042,,15.55
8043,,15.56
8044,,15.56
8045,,15.56
8046,,15.57
8047,,15.57
8048,,15.58
8049,,15.58
8050,,15.58
8051,,15.59
8052,,15.59
8053,,15.6
8054,,15.6
8055,,15.6
8056,,15.61
8057,,15.61
8058,,15.62
8059,,15.62
8060,,15.62
8061,,15.63
8062,,15.63
8063,,15.64
8064,,15.64
8065,,15.64
8066,,15.65
8067,,15.65
8068,,15.65
8069,,15.66
8070,,15.66
8071,,15.67
8072,,15.67
8073,,15.68
8074,,15.68
8075,,15.68
8076,,15.69
8077,,15.69
8078,,15.7
8079,,15.7
8080,,15.7
8081,,15.71
8082,,15.71
8083,,15.72
8084,,15.72
8085,,15.72
8086,,15.73
8087,,15.73
8088,,15.74
8089,,15.74
8090,,15.74
8091,,15.75
8092,,15.75
8093,,15.76
8094,,15.76
8095,,15.76
8096,,15.77
8097,,15.77
8098,,15.78
8099,,15.78
8100,,15.78
8101,,15.79
8102,,15.79
8103,,15.8
8104,,15.8
8105,,15.8
8106,,15.81
8107,,15.81
8108,,15.82
8109,,15.82
8110,,15.82
8111,,15.83
8112,,15.83
8113,,15.84
8114,,15.84
8115,,15.84
8116,,15.85
8117,,15.85
8118,,15.86
8119,,15.86
8120,,15.86
8121,,15.87
8122,,15.87
8123,,15.88
8124,,15.88
8125,,15.88
8126,,15.89
8127,,15.89
8128,,15.9
8129,,15.9
8130,,15.9
8131,,15.91
8132,,15.91
8133,,15.92
8134,,15.92
8135,,15.92
8136,,15.93
8137,,15.93
8138,,15.94
8139,,15.94
8140,,15.94
8141,,15.95
8142,,15.95
8143,,15.96
8144,,15.96
8145,,15.96
8146,,15.97
8147,,15.97
8148,,15.98
8149,,15.98
8150,,15.98
8151,,15.99
8152,,15.99
8153,,16.0
8154,,16.0
8155,,16.0
8156,,16.01
8157,,16.01
8158,,16.02
8159,,16.02
8160,,16.02
8161,,16.03
8162,,16.03
8163,,16.04
8164,,16.04
8165,,16.04
8166,,16.05
8167,,16.05
8168,,16.06
8169,,16.06
8170,,16.06
8171,,16.07
8172,,16.07
8173,,16.08
8174,,16.08
8175,,16.08
8176,,16.09
8177,,16.09
8178,,16.1
8179,,16.1
8180,,16.1
8181,,16.11
8182,,16.11
8183,,16.12
8184,,16.12
8185,,16.12
8186,,16.13
8187,,16.13
8188,,16.14
8189,,16.14
8190,,16.14
8191,,16.15
8192,,16.15
8193,,16.15
8194,,16.16
8195,,16.16
8196,,16.17
8197,,16.17
8198,,16.18
8199,,16.18
8200,,16.18
8201,,16.19
8202,,16.19
8203,,16.2
8204,,16.2
8205,,16.2
8206,,16.21
8207,,16.21
8208,,16.22
8209,,16.22
8210,,16.22
8211,,16.23
8212,,16.23
8213,,16.24
8214,,16.24
8215,,16.24
8216,,16.25
8217,,16.25
8218,,16.26
8219,,16.26
8220,,16.26
8221,,16.27
8222,,16.27
8223,,16.28
8224,,16.28
8225,,16.28
8226,,16.29
8227,,16.29
8228,,16.3
8229,,16.3
8230,,16.3
8231,,16.31
8232,,16.31
8233,,16.32
8234,,16.32
8235,,16.32
8236,,16.33
8237,,16.33
8238,,16.34
8239,,16.34
8240,,16.34
8241,,16.35
8242,,16.35
8243,,16.36
8244,,16.36
8245,,16.36
8246,,16.37
8247,,16.37
8248,,16.38
8249,,16.38
8250,,16.38
8251,,16.39
8252,,16.39
8253,,16.4
8254,,16.4
8255,,16.41
8256,,16.41
8257,,16.42
8258,,16.42
8259,,16.42
8260,,16.43
8261,,16.43
8262,,16.44
8263,,16.44
8264,,16.44
8265,,16.45
8266,,16.45
8267,,16.46
8268,,16.46
8269,,16.46
8270,,16.47
8271,,16.47
8272,,16.48
8273,,16.48
8274,,16.48
8275,,16.49
8276,,16.49
8277,,16.5
8278,,16.5
8279,,16.5
8280,,16.51
8281,,16.51
8282,,16.52
8283,,16.52
8284,,16.52
8285,,16.53
8286,,16.53
8287,,16.54
8288,,16.54
8289,,16.54
8290,,16.55
8291,,16.55
8292,,16.56
8293,,16.56
8294,,16.56
8295,,16.57
8296,,16.57
8297,,16.58
8298,,16.58
8299,,16.58
8300,,16.59
8301,,16.59
8302,,16.6
8303,,16.6
8304,,16.6
8305,,16.61
8306,,16.61
8307,,16.62
8308,,16.62
8309,,16.62
8310,,16.63
8311,,16.63
8312,,16.64
8313,,16.64
8314,,16.64
8315,,16.65
8316,,16.65
8317,,16.66
8318,,16.66
8319,,16.66
8320,,16.67
8321,,16.67
8322,,16.68
8323,,16.68
8324,,16.68
8325,,16.69
8326,,16.69
8327,,16.7
8328,,16.7
8329,,16.7
8330,,16.71
8331,,16.71
8332,,16.72
8333,,16.72
8334,,16.72
8335,,16.73
8336,,16.73
8337,,16.74
8338,,16.74
8339,,16.74
8340,,16.75
8341,,16.75
8342,,16.76
8343,,16.76
8344,,16.76
8345,,16.77
8346,,16.77
8347,,16.78
8348,,16.78
8349,,16.78
8350,,16.79
8351,,16.79
8352,,16.8
8353,,16.8
8354,,16.8
8355,,16.81
8356,,16.81
8357,,16.82
8358,,16.82
8359,,16.82
8360,,16.83
8361,,16.83
8362,,16.84
8363,,16.84
8364,,16.84
8365,,16.85
8366,,16.85
8367,,16.86
8368,,16.86
8369,,16.86
8370,,16.87
8371,,16.87
8372,,16.88
8373,,16.88
8374,,16.88
8375,,16.89
8376,,16.89
8377,,16.9
8378,,16.9
8379,,16.9
8380,,16.91
8381,,16.91
8382,,16.92
8383,,16.92
8384,,16.92
8385,,16.93
8386,,16.93
8387,,16.94
8388,,16.94
8389,,16.94
8390,,16.95
8391,,16.95
8392,,16.96
8393,,16.96
8394,,16.96
8395,,16.97
8396,,16.97
8397,,16.98
8398,,16.98
8399,,16.98
8400,,16.99
8401,,16.99
8402,,17.0
8403,,17.0
8404,,17.0
8405,,17.01
8406,,17.01
8407,,17.02
8408,,17.02
8409,,17.02
8410,,17.03
8411,,17.03
8412,,17.04
8413,,17.04
8414,,17.04
8415,,17.05
8416,,17.05
8417,,17.06
8418,,17.06
8419,,17.06
8420,,17.07
8421,,17.07
8422,,17.08
8423,,17.08
8424,,17.08
8425,,17.09
8426,,17.09
8427,,17.1
8428,,17.1
8429,,17.1
8430,,17.11
8431,,17.11
8432,,17.12
8433,,17.12
8434,,17.12
8435,,17.13
8436,,17.13
8437,,17.14
8438,,17.14
8439,,17.14
8440,,17.15
8441,,17.15
8442,,17.16
8443,,17.16
8444,,17.16
8445,,17.17
8446,,17.17
8447,,17.18
8448,,17.18
8449,,17.18
8450,,17.19
8451,,17.19
8452,,17.2
8453,,17.2
8454,,17.2
8455,,17.21
8456,,17.21
8457,,17.22
8458,,17.22
8459,,17.22
8460,,17.23
8461,,17.23
8462,,17.24
8463,,17.24
8464,,17.24
8465,,17.25
8466,,17.25
8467,,17.26
8468,,17.26
8469,,17.26
8470,,17.27
8471,,17.27
8472,,17.28
8473,,17.28
8474,,17.28
8475,,17.29
8476,,17.29
8477,,17.3
8478,,17.3
8479,,17.3
8480,,17.31
8481,,17.31
8482,,17.32
8483,,17.32
8484,,17.32
8485,,17.33
8486,,17.33
8487,,17.34
8488,,17.34
8489,,17.34
8490,,17.35
8491,,17.35
8492,,17.36
8493,,17.36
8494,,17.36
8495,,17.37
8496,,17.37
8497,,17.38
8498,,17.38
8499,,17.38
8500,,17.39
8501,,17.39
8502,,17.4
8503,,17.4
8504,,17.4
8505,,17.41
8506,,17.41
8507,,17.42
8508,,17.42
8509,,17.42
8510,,17.43
8511,,17.43
8512,,17.44
8513,,17.44
8514,,17.44
8515,,17.45
8516,,17.45
8517,,17.46
8518,,17.46
8519,,17.46
8520,,17.47
8521,,17.47
8522,,17.48
8523,,17.48
8524,,17.48
8525,,17.49
8526,,17.49
8527,,17.5
8528,,17.5
8529,,17.5
8530,,17.51
8531,,17.51
8532,,17.52
8533,,17.52
8534,,17.52
8535,,17.53
8536,,17.53
8537,,17.54
8538,,17.54
8539,,17.54
8540,,17.55
8541,,17.55
8542,,17.56
8543,,17.56
8544,,17.56
8545,,17.57
8546,,17.57
8547,,17.58
8548,,17.58
8549,,17.58
8550,,17.59
8551,,17.59
8552,,17.6
8553,,17.6
8554,,17.6
8555,,17.61
8556,,17.61
8557,,17.62
8558,,17.62
8559,,17.62
8560,,17.63
8561,,17.63
8562,,17.64
8563,,17.64
8564,,17.64
8565,,17.65
8566,,17.65
8567,,17.66
8568,,17.66
8569,,17.66
8570,,17.67
8571,,17.67
8572,,17.67
8573,,17.68
8574,,17.68
8575,,17.69
8576,,17.69
8577,,17.69
8578,,17.7
8579,,17.7
8580,,17.71
8581,,17.71
8582,,17.72
8583,,17.72
8584,,17.72
8585,,17.73
8586,,17.73
8587,,17.74
8588,,17.74
8589,,17.74
8590,,17.75
8591,,17.75
8592,,17.76
8593,,17.76
8594,,17.76
8595,,17.77
8596,,17.77
8597,,17.78
8598,,17.78
8599,,17.78
8600,,17.79
8601,,17.79
8602,,17.8
8603,,17.8
8604,,17.8
8605,,17.81
8606,,17.81
8607,,17.82
8608,,17.82
8609,,17.82
8610,,17.83
8611,,17.83
8612,,17.84
8613,,17.84
8614,,17.84
8615,,17.85
8616,,17.85
8617,,17.86
8618,,17.86
8619,,17.86
8620,,17.87
8621,,17.87
8622,,17.88
8623,,17.88
8624,,17.88
8625,,17.89
8626,,17.89
8627,,17.9
8628,,17.9
8629,,17.9
8630,,17.91
8631,,17.91
8632,,17.92
8633,,17.92
8634,,17.92
8635,,17.93
8636,,17.93
8637,,17.93
8638,,17.94
8639,,17.94
8640,,17.95
8641,,17.95
8642,,17.96
8643,,17.96
8644,,17.96
8645,,17.97
8646,,17.97
8647,,17.98
8648,,17.98
8649,,17.98
8650,,17.99
8651,,17.99
8652,,18.0
8653,,18.0
8654,,18.0
8655,,18.01
8656,,18.01
8657,,18.02
8658,,18.02
8659,,18.02
8660,,18.03
8661,,18.03
8662,,18.04
8663,,18.04
8664,,18.04
8665,,18.05
8666,,18.05
8667,,18.06
8668,,18.06
8669,,18.06
8670,,18.07
8671,,18.07
8672,,18.08
8673,,18.08
8674,,18.08
8675,,18.09
8676,,18.09
8677,,18.1
8678,,18.1
8679,,18.1
8680,,18.11
8681,,18.11
8682,,18.12
8683,,18.12
8684,,18.12
8685,,18.13
8686,,18.13
8687,,18.14
8688,,18.14
8689,,18.14
8690,,18.15
8691,,18.15
8692,,18.16
8693,,18.16
8694,,18.16
8695,,18.17
8696,,18.17
8697,,18.17
8698,,18.18
8699,,18.18
8700,,18.19
8701,,18.19
8702,,18.19
8703,,18.2
8704,,18.2
8705,,18.21
8706,,18.21
8707,,18.22
8708,,18.22
8709,,18.22
8710,,18.23
8711,,18.23
8712,,18.24
8713,,18.24
8714,,18.24
8715,,18.25
8716,,18.25
8717,,18.26
8718,,18.26
8719,,18.26
8720,,18.27
8721,,18.27
8722,,18.28
8723,,18.28
8724,,18.28
8725,,18.29
8726,,18.29
8727,,18.3
8728,,18.3
8729,,18.3
8730,,18.31
8731,,18.31
8732,,18.32
8733,,18.32
8734,,18.32
8735,,18.33
8736,,18.33
8737,,18.34
8738,,18.34
8739,,18.34
8740,,18.35
8741,,18.35
8742,,18.36
8743,,18.36
8744,,18.36
8745,,18.37
8746,,18.37
8747,,18.38
8748,,18.38
8749,,18.38
8750,,18.39
8751,,18.39
8752,,18.4
8753,,18.4
8754,,18.4
8755,,18.41
8756,,18.41
8757,,18.42
8758,,18.42
8759,,18.42
8760,,18.43
8761,,18.43
8762,,18.43
8763,,18.44
8764,,18.44
8765,,18.45
8766,,18.45
8767,,18.46
8768,,18.46
8769,,18.46
8770,,18.47
8771,,18.47
8772,,18.48
8773,,18.48
8774,,18.48
8775,,18.49
8776,,18.49
8777,,18.5
8778,,18.5
8779,,18.5
8780,,18.51
8781,,18.51
8782,,18.52
8783,,18.52
8784,,18.52
8785,,18.53
8786,,18.53
8787,,18.54
8788,,18.54
8789,,18.54
8790,,18.55
8791,,18.55
8792,,18.56
8793,,18.56
8794,,18.56
8795,,18.57
8796,,18.57
8797,,18.58
8798,,18.58
8799,,18.58
8800,,18.59
8801,,18.59
8802,,18.6
8803,,18.6
8804,,18.6
8805,,18.61
8806,,18.61
8807,,18.62
8808,,18.62
8809,,18.62
8810,,18.63
8811,,18.63
8812,,18.64
8813,,18.64
8814,,18.64
8815,,18.65
8816,,18.65
8817,,18.66
8818,,18.66
8819,,18.66
8820,,18.67
8821,,18.67
8822,,18.67
8823,,18.68
8824,,18.68
8825,,18.69
8826,,18.69
8827,,18.69
8828,,18.7
8829,,18.7
8830,,18.71
8831,,18.71
8832,,18.72
8833,,18.72
8834,,18.72
8835,,18.73
8836,,18.73
8837,,18.74
8838,,18.74
8839,,18.74
8840,,18.75
8841,,18.75
8842,,18.76
8843,,18.76
8844,,18.76
8845,,18.77
8846,,18.77
8847,,18.78
8848,,18.78
8849,,18.78
8850,,18.79
8851,,18.79
8852,,18.8
8853,,18.8
8854,,18.8
8855,,18.81
8856,,18.81
8857,,18.82
8858,,18.82
8859,,18.82
8860,,18.83
8861,,18.83
8862,,18.84
8863,,18.84
8864,,18.84
8865,,18.85
8866,,18.85
8867,,18.86
8868,,18.86
8869,,18.86
8870,,18.87
8871,,18.87
8872,,18.88
8873,,18.88
8874,,18.88
8875,,18.89
8876,,18.89
8877,,18.9
8878,,18.9
8879,,18.9
8880,,18.91
8881,,18.91
8882,,18.92
8883,,18.92
8884,,18.92
8885,,18.93
8886,,18.93
8887,,18.93
8888,,18.94
8889,,18.94
8890,,18.95
8891,,18.95
8892,,18.96
8893,,18.96
8894,,18.96
8895,,18.97
8896,,18.97
8897,,18.98
8898,,18.98
8899,,18.98
8900,,18.99
8901,,18.99
8902,,19.0
8903,,19.0
8904,,19.0
8905,,19.01
8906,,19.01
8907,,19.02
8908,,19.02
8909,,19.02
8910,,19.03
8911,,19.03
8912,,19.04
8913,,19.04
8914,,19.04
8915,,19.05
8916,,19.05
8917,,19.06
8918,,19.06
8919,,19.06
8920,,19.07
8921,,19.07
8922,,19.08
8923,,19.08
8924,,19.08
8925,,19.09
8926,,19.09
8927,,19.1
8928,,19.1
8929,,19.1
8930,,19.11
8931,,19.11
8932,,19.12
8933,,19.12
8934,,19.12
8935,,19.13
8936,,19.13
8937,,19.14
8938,,19.14
8939,,19.14
8940,,19.15
8941,,19.15
8942,,19.16
8943,,19.16
8944,,19.16
8945,,19.17
8946,,19.17
8947,,19.18
8948,,19.18
8949,,19.18
8950,,19.19
8951,,19.19
8952,,19.19
8953,,19.2
8954,,19.2
8955,,19.21
8956,,19.21
8957,,19.22
8958,,19.22
8959,,19.22
8960,,19.23
8961,,19.23
8962,,19.24
8963,,19.24
8964,,19.24
8965,,19.25
8966,,19.25
8967,,19.26
8968,,19.26
8969,,19.26
8970,,19.27
8971,,19.27
8972,,19.28
8973,,19.28
8974,,19.28
8975,,19.29
8976,,19.29
8977,,19.3
8978,,19.3
8979,,19.3
8980,,19.31
8981,,19.31
8982,,19.32
8983,,19.32
8984,,19.32
8985,,19.33
8986,,19.33
8987,,19.34
8988,,19.34
8989,,19.34
8990,,19.35
8991,,19.35
8992,,19.36
8993,,19.36
8994,,19.36
8995,,19.37
8996,,19.37
8997,,19.38
8998,,19.38
8999,,19.38
9000,,19.39
9001,,19.39
9002,,19.4
9003,,19.4
9004,,19.4
9005,,19.41
9006,,19.41
9007,,19.42
9008,,19.42
9009,,19.42
9010,,19.43
9011,,19.43
9012,,19.43
9013,,19.44
9014,,19.44
9015,,19.45
9016,,19.45
9017,,19.46
9018,,19.46
9019,,19.46
9020,,19.47
9021,,19.47
9022,,19.48
9023,,19.48
9024,,19.48
9025,,19.49
9026,,19.49
9027,,19.5
9028,,19.5
9029,,19.5
9030,,19.51
9031,,19.51
9032,,19.52
9033,,19.52
9034,,19.52
9035,,19.53
9036,,19.53
9037,,19.54
9038,,19.54
9039,,19.54
9040,,19.55
9041,,19.55
9042,,19.56
9043,,19.56
9044,,19.56
9045,,19.57
9046,,19.57
9047,,19.58
9048,,19.58
9049,,19.58
9050,,19.59
9051,,19.59
9052,,19.6
9053,,19.6
9054,,19.6
9055,,19.61
9056,,19.61
9057,,19.62
9058,,19.62
9059,,19.62
9060,,19.63
9061,,19.63
9062,,19.64
9063,,19.64
9064,,19.64
9065,,19.65
9066,,19.65
9067,,19.66
9068,,19.66
9069,,19.66
9070,,19.67
9071,,19.67
9072,,19.68
9073,,19.68
9074,,19.68
9075,,19.69
9076,,19.69
9077,,19.69
9078,,19.7
9079,,19.7
9080,,19.71
9081,,19.71
9082,,19.72
9083,,19.72
9084,,19.72
9085,,19.73
9086,,19.73
9087,,19.74
9088,,19.74
9089,,19.74
9090,,19.75
9091,,19.75
9092,,19.76
9093,,19.76
9094,,19.76
9095,,19.77
9096,,19.77
9097,,19.78
9098,,19.78
9099,,19.78
9100,,19.79
9101,,19.79
9102,,19.8
9103,,19.8
9104,,19.8
9105,,19.81
9106,,19.81
9107,,19.82
9108,,19.82
9109,,19.82
9110,,19.83
9111,,19.83
9112,,19.84
9113,,19.84
9114,,19.84
9115,,19.85
9116,,19.85
9117,,19.86
9118,,19.86
9119,,19.86
9120,,19.87
9121,,19.87
9122,,19.88
9123,,19.88
9124,,19.88
9125,,19.89
9126,,19.89
9127,,19.9
9128,,19.9
9129,,19.9
9130,,19.91
9131,,19.91
9132,,19.92
9133,,19.92
9134,,19.92
9135,,19.93
9136,,19.93
9137,,19.93
9138,,19.94
9139,,19.94
9140,,19.95
9141,,19.95
9142,,19.96
9143,,19.96
9144,,19.96
9145,,19.97
9146,,19.97
9147,,19.98
9148,,19.98
9149,,19.98
9150,,19.99
9151,,19.99
9152,,20.0
9153,,20.0
9154,,20.0
9155,,20.01
9156,,20.01
9157,,20.02
9158,,20.02
9159,,20.02
9160,,20.03
9161,,20.03
9162,,20.04
9163,,20.04
9164,,20.04
9165,,20.05
9166,,20.05
9167,,20.06
9168,,20.06
9169,,20.06
9170,,20.07
9171,,20.07
9172,,20.08
9173,,20.08
9174,,20.08
9175,,20.09
9176,,20.09
9177,,20.1
9178,,20.1
9179,,20.1
9180,,20.11
9181,,20.11
9182,,20.12
9183,,20.12
9184,,20.12
9185,,20.13
9186,,20.13
9187,,20.14
9188,,20.14
9189,,20.14
9190,,20.15
9191,,20.15
9192,,20.16
9193,,20.16
9194,,20.16
9195,,20.17
9196,,20.17
9197,,20.18
9198,,20.18
9199,,20.18
9200,,20.19
9201,,20.19
9202,,20.19
9203,,20.2
9204,,20.2
9205,,20.21
9206,,20.21
9207,,20.22
9208,,20.22
9209,,20.22
9210,,20.23
9211,,20.23
9212,,20.24
9213,,20.24
9214,,20.24
9215,,20.25
9216,,20.25
9217,,20.26
9218,,20.26
9219,,20.26
9220,,20.27
9221,,20.27
9222,,20.28
9223,,20.28
9224,,20.28
9225,,20.29
9226,,20.29
9227,,20.3
9228,,20.3
9229,,20.3
9230,,20.31
9231,,20.31
9232,,20.32
9233,,20.32
9234,,20.32
9235,,20.33
9236,,20.33
9237,,20.34
9238,,20.34
9239,,20.34
9240,,20.35
9241,,20.35
9242,,20.36
9243,,20.36
9244,,20.36
9245,,20.37
9246,,20.37
9247,,20.38
9248,,20.38
9249,,20.38
9250,,20.39
9251,,20.39
9252,,20.4
9253,,20.4
9254,,20.4
9255,,20.41
9256,,20.41
9257,,20.42
9258,,20.42
9259,,20.42
9260,,20.43
9261,,20.43
9262,,20.44
9263,,20.43
9264,,20.44
9265,,20.44
9266,,20.45
9267,,20.45
9268,,20.46
9269,,20.46
9270,,20.46
9271,,20.47
9272,,20.47
9273,,20.48
9274,,20.48
9275,,20.48
9276,,20.49
9277,,20.49
9278,,20.5
9279,,20.5
9280,,20.5
9281,,20.51
9282,,20.51
9283,,20.52
9284,,20.52
9285,,20.52
9286,,20.53
9287,,20.53
9288,,20.54
9289,,20.54
9290,,20.54
9291,,20.55
9292,,20.55
9293,,20.56
9294,,20.56
9295,,20.56
9296,,20.57
9297,,20.57
9298,,20.58
9299,,20.58
9300,,20.58
9301,,20.59
9302,,20.59
9303,,20.6
9304,,20.6
9305,,20.6
9306,,20.61
9307,,20.61
9308,,20.62
9309,,20.62
9310,,20.62
9311,,20.63
9312,,20.63
9313,,20.64
9314,,20.64
9315,,20.64
9316,,20.65
9317,,20.65
9318,,20.66
9319,,20.66
9320,,20.66
9321,,20.67
9322,,20.67
9323,,20.68
9324,,20.68
9325,,20.68
9326,,20.69
9327,,20.69
9328,,20.69
9329,,20.7
9330,,20.7
9331,,20.71
9332,,20.71
9333,,20.72
9334,,20.72
9335,,20.72
9336,,20.73
9337,,20.73
9338,,20.74
9339,,20.74
9340,,20.74
9341,,20.75
9342,,20.75
9343,,20.76
9344,,20.76
9345,,20.76
9346,,20.77
9347,,20.77
9348,,20.78
9349,,20.78
9350,,20.78
9351,,20.79
9352,,20.79
9353,,20.8
9354,,20.8
9355,,20.8
9356,,20.81
9357,,20.81
9358,,20.82
9359,,20.82
9360,,20.82
9361,,20.83
9362,,20.83
9363,,20.84
9364,,20.84
9365,,20.84
9366,,20.85
9367,,20.85
9368,,20.86
9369,,20.86
9370,,20.86
9371,,20.87
9372,,20.87
9373,,20.88
9374,,20.88
9375,,20.88
9376,,20.89
9377,,20.89
9378,,20.9
9379,,20.9
9380,,20.9
9381,,20.91
9382,,20.91
9383,,20.92
9384,,20.92
9385,,20.92
9386,,20.93
9387,,20.93
9388,,20.94
9389,,20.94
9390,,20.94
9391,,20.95
9392,,20.95
9393,,20.96
9394,,20.96
9395,,20.96
9396,,20.97
9397,,20.97
9398,,20.98
9399,,20.98
9400,,20.98
9401,,20.99
9402,,20.99
9403,,21.0
9404,,21.0
9405,,21.0
9406,,21.01
9407,,21.01
9408,,21.02
9409,,21.02
9410,,21.02
9411,,21.03
9412,,21.03
9413,,21.04
9414,,21.04
9415,,21.04
9416,,21.05
9417,,21.05
9418,,21.06
9419,,21.06
9420,,21.06
9421,,21.07
9422,,21.07
9423,,21.08
9424,,21.08
9425,,21.08
9426,,21.09
9427,,21.09
9428,,21.1
9429,,21.1
9430,,21.1
9431,,21.11
9432,,21.11
9433,,21.12
9434,,21.12
9435,,21.12
9436,,21.13
9437,,21.13
9438,,21.14
9439,,21.14
9440,,21.14
9441,,21.15
9442,,21.15
9443,,21.16
9444,,21.16
9445,,21.16
9446,,21.17
9447,,21.17
9448,,21.18
9449,,21.18
9450,,21.18
9451,,21.19
9452,,21.19
9453,,21.19
9454,,21.2
9455,,21.2
9456,,21.21
9457,,21.21
9458,,21.22
9459,,21.22
9460,,21.22
9461,,21.23
9462,,21.23
9463,,21.24
9464,,21.24
9465,,21.24
9466,,21.25
9467,,21.25
9468,,21.26
9469,,21.26
9470,,21.26
9471,,21.27
9472,,21.27
9473,,21.28
9474,,21.28
9475,,21.28
9476,,21.29
9477,,21.29
9478,,21.3
9479,,21.3
9480,,21.3
9481,,21.31
9482,,21.31
9483,,21.32
9484,,21.32
9485,,21.32
9486,,21.33
9487,,21.33
9488,,21.34
9489,,21.34
9490,,21.34
9491,,21.35
9492,,21.35
9493,,21.36
9494,,21.36
9495,,21.36
9496,,21.37
9497,,21.37
9498,,21.38
9499,,21.38
9500,,21.38
9501,,21.39
9502,,21.39
9503,,21.4
9504,,21.4
9505,,21.4
9506,,21.41
9507,,21.41
9508,,21.42
9509,,21.42
9510,,21.42
9511,,21.43
9512,,21.43
9513,,21.44
9514,,21.44
9515,,21.45
9516,,21.45
9517,,21.46
9518,,21.46
9519,,21.46
9520,,21.47
9521,,21.47
9522,,21.48
9523,,21.48
9524,,21.48
9525,,21.49
9526,,21.49
9527,,21.5
9528,,21.5
9529,,21.5
9530,,21.51
9531,,21.51
9532,,21.52
9533,,21.52
9534,,21.52
9535,,21.53
9536,,21.53
9537,,21.54
9538,,21.54
9539,,21.54
9540,,21.55
9541,,21.55
9542,,21.56
9543,,21.56
9544,,21.56
9545,,21.57
9546,,21.57
9547,,21.58
9548,,21.58
9549,,21.58
9550,,21.59
9551,,21.59
9552,,21.6
9553,,21.6
9554,,21.6
9555,,21.61
9556,,21.61
9557,,21.62
9558,,21.62
9559,,21.62
9560,,21.63
9561,,21.63
9562,,21.64
9563,,21.64
9564,,21.64
9565,,21.65
9566,,21.65
9567,,21.66
9568,,21.66
9569,,21.66
9570,,21.67
9571,,21.67
9572,,21.68
9573,,21.68
9574,,21.68
9575,,21.69
9576,,21.69
9577,,21.7
9578,,21.7
9579,,21.7
9580,,21.71
9581,,21.71
9582,,21.72
9583,,21.72
9584,,21.72
9585,,21.73
9586,,21.73
9587,,21.74
9588,,21.74
9589,,21.74
9590,,21.75
9591,,21.75
9592,,21.76
9593,,21.76
9594,,21.76
9595,,21.77
9596,,21.77
9597,,21.78
9598,,21.78
9599,,21.78
9600,,21.79
9601,,21.79
9602,,21.8
9603,,21.8
9604,,21.8
9605,,21.81
9606,,21.81
9607,,21.82
9608,,21.82
9609,,21.82
9610,,21.83
9611,,21.83
9612,,21.84
9613,,21.84
9614,,21.84
9615,,21.85
9616,,21.85
9617,,21.86
9618,,21.86
9619,,21.86
9620,,21.87
9621,,21.87
9622,,21.88
9623,,21.88
9624,,21.88
9625,,21.89
9626,,21.89
9627,,21.9
9628,,21.9
9629,,21.9
9630,,21.91
9631,,21.91
9632,,21.92
9633,,21.92
9634,,21.92
9635,,21.93
9636,,21.93
9637,,21.94
9638,,21.94
9639,,21.94
9640,,21.95
9641,,21.95
9642,,21.96
9643,,21.96
9644,,21.96
9645,,21.97
9646,,21.97
9647,,21.98
9648,,21.98
9649,,21.98
9650,,21.99
9651,,21.99
9652,,22.0
9653,,22.0
9654,,22.0
9655,,22.01
9656,,22.01
9657,,22.02
9658,,22.02
9659,,22.02
9660,,22.03
9661,,22.03
9662,,22.04
9663,,22.04
9664,,22.04
9665,,22.05
9666,,22.05
9667,,22.06
9668,,22.06
9669,,22.06
9670,,22.07
9671,,22.07
9672,,22.08
9673,,22.08
9674,,22.08
9675,,22.09
9676,,22.09
9677,,22.1
9678,,22.1
9679,,22.1
9680,,22.11
9681,,22.11
9682,,22.12
9683,,22.12
9684,,22.12
9685,,22.13
9686,,22.13
9687,,22.14
9688,,22.14
9689,,22.14
9690,,22.15
9691,,22.15
9692,,22.16
9693,,22.16
9694,,22.16
9695,,22.17
9696,,22.17
9697,,22.18
9698,,22.18
9699,,22.18
9700,,22.19
9701,,22.19
9702,,22.2
9703,,22.2
9704,,22.2
9705,,22.21
9706,,22.21
9707,,22.21
9708,,22.22
9709,,22.22
9710,,22.23
9711,,22.23
9712,,22.23
9713,,22.24
9714,,22.24
9715,,22.25
9716,,22.25
9717,,22.26
9718,,22.26
9719,,22.26
9720,,22.27
9721,,22.27
9722,,22.28
9723,,22.28
9724,,22.28
9725,,22.29
9726,,22.29
9727,,22.3
9728,,22.3
9729,,22.3
9730,,22.31
9731,,22.31
9732,,22.32
9733,,22.32
9734,,22.32
9735,,22.33
9736,,22.33
9737,,22.34
9738,,22.34
9739,,22.34
9740,,22.35
9741,,22.35
9742,,22.36
9743,,22.36
9744,,22.36
9745,,22.37
9746,,22.37
9747,,22.38
9748,,22.38
9749,,22.38
9750,,22.39
9751,,22.39
9752,,22.4
9753,,22.4
9754,,22.4
9755,,22.41
9756,,22.41
9757,,22.42
9758,,22.42
9759,,22.42
9760,,22.43
9761,,22.43
9762,,22.44
9763,,22.44
9764,,22.44
9765,,22.45
9766,,22.45
9767,,22.45
9768,,22.46
9769,,22.46
9770,,22.47
9771,,22.47
9772,,22.47
9773,,22.48
9774,,22.48
9775,,22.49
9776,,22.49
9777,,22.5
9778,,22.5
9779,,22.5
9780,,22.51
9781,,22.51
9782,,22.52
9783,,22.52
9784,,22.52
9785,,22.53
9786,,22.53
9787,,22.54
9788,,22.54
9789,,22.54
9790,,22.55
9791,,22.55
9792,,22.56
9793,,22.56
9794,,22.56
9795,,22.57
9796,,22.57
9797,,22.58
9798,,22.58
9799,,22.58
9800,,22.59
9801,,22.59
9802,,22.6
9803,,22.6
9804,,22.6
9805,,22.61
9806,,22.61
9807,,22.62
9808,,22.62
9809,,22.62
9810,,22.63
9811,,22.63
9812,,22.64
9813,,22.64
9814,,22.64
9815,,22.65
9816,,22.65
9817,,22.66
9818,,22.66
9819,,22.66
9820,,22.67
9821,,22.67
9822,,22.68
9823,,22.68
9824,,22.68
9825,,22.69
9826,,22.69
9827,,22.7
9828,,22.7
9829,,22.7
9830,,22.71
9831,,22.71
9832,,22.71
9833,,22.72
9834,,22.72
9835,,22.73
9836,,22.73
9837,,22.73
9838,,22.74
9839,,22.74
9840,,22.75
9841,,22.75
9842,,22.76
9843,,22.76
9844,,22.76
9845,,22.77
9846,,22.77
9847,,22.78
9848,,22.78
9849,,22.78
9850,,22.79
9851,,22.79
9852,,22.8
9853,,22.8
9854,,22.8
9855,,22.81
9856,,22.81
9857,,22.82
9858,,22.82
9859,,22.82
9860,,22.83
9861,,22.83
9862,,22.84
9863,,22.84
9864,,22.84
9865,,22.85
9866,,22.85
9867,,22.86
9868,,22.86
9869,,22.86
9870,,22.87
9871,,22.87
9872,,22.88
9873,,22.88
9874,,22.88
9875,,22.89
9876,,22.89
9877,,22.9
9878,,22.9
9879,,22.9
9880,,22.91
9881,,22.91
9882,,22.92
9883,,22.92
9884,,22.92
9885,,22.93
9886,,22.93
9887,,22.94
9888,,22.94
9889,,22.94
9890,,22.95
9891,,22.95
9892,,22.96
9893,,22.96
9894,,22.96
9895,,22.97
9896,,22.97
9897,,22.97
9898,,22.98
9899,,22.98
9900,,22.99
9901,,22.99
9902,,23.0
9903,,23.0
9904,,23.0
9905,,23.01
9906,,23.01
9907,,23.02
9908,,23.02
9909,,23.02
9910,,23.03
9911,,23.03
9912,,23.04
9913,,23.04
9914,,23.04
9915,,23.05
9916,,23.05
9917,,23.06
9918,,23.06
9919,,23.06
9920,,23.07
9921,,23.07
9922,,23.08
9923,,23.08
9924,,23.08
9925,,23.09
9926,,23.09
9927,,23.1
9928,,23.1
9929,,23.1
9930,,23.11
9931,,23.11
9932,,23.12
9933,,23.12
9934,,23.12
9935,,23.13
9936,,23.13
9937,,23.14
9938,,23.14
9939,,23.14
9940,,23.15
9941,,23.15
9942,,23.16
9943,,23.16
9944,,23.16
9945,,23.17
9946,,23.17
9947,,23.18
9948,,23.18
9949,,23.18
9950,,23.19
9951,,23.19
9952,,23.2
9953,,23.2
9954,,23.2
9955,,23.21
9956,,23.21
9957,,23.21
9958,,23.22
9959,,23.22
9960,,23.23
9961,,23.23
9962,,23.23
9963,,23.24
9964,,23.24
9965,,23.25
9966,,23.25
9967,,23.26
9968,,23.26
9969,,23.26
9970,,23.27
9971,,23.27
9972,,23.28
9973,,23.28
9974,,23.28
9975,,23.29
9976,,23.29
9977,,23.3
9978,,23.3
9979,,23.3
9980,,23.31
9981,,23.31
9982,,23.32
9983,,23.32
9984,,23.32
9985,,23.33
9986,,23.33
9987,,23.34
9988,,23.34
9989,,23.34
9990,,23.35
9991,,23.35
9992,,23.36
9993,,23.36
9994,,23.36
9995,,23.37
9996,,23.37
9997,,23.38
9998,,23.38
9999,,23.38
10000,,23.39
10001,,23.39
10002,,23.4
10003,,23.4
10004,,23.4
10005,,23.41
10006,,23.41
10007,,23.42
10008,,23.42
10009,,23.42
10010,,23.43
10011,,23.43
10012,,23.44
10013,,23.44
10014,,23.44
10015,,23.45
10016,,23.45
10017,,23.46
10018,,23.46
10019,,23.34
10020,,0.0
10021,,86.27
10022,,0.0
10023,,1.55
